--
64.000000
-0.00
-0.00
-0.00
-0.00
-0.00
-0.00
-0.00
-0.00
-0.00
-0.00
0.00
0.01
0.01
-0.00
-0.03
-0.05
-0.05
0.00
0.13
0.36
0.66
1.01
1.37
1.72
2.06
2.40
2.79
3.24
3.80
4.42
5.06
5.66
6.20
6.68
7.15
7.68
8.31
9.14
10.09
11.04
11.88
12.56
13.14
13.76
14.65
15.96
17.91
20.32
22.90
25.38
27.58
29.57
31.68
34.32
37.81
42.54
48.15
54.10
59.83
64.97
69.58
74.14
79.34
85.71
93.76
103.00
112.62
121.73
129.77
136.75
143.30
150.75
157.77
166.64
177.95
191.79
206.97
220.57
228.25
225.36
208.53
176.87
132.76
80.05
23.07
-34.94
-92.44
-149.16
-205.23
-260.37
-313.74
-363.87
-409.83
-450.89
-486.47
-515.69
-537.15
-549.12
-549.82
-538.19
-513.98
-478.39
-433.54
-382.05
-326.56
-269.31
-212.04
-155.99
-102.21
-51.56
-5.01
36.56
72.50
102.52
126.78
145.77
160.21
170.81
178.19
182.75
184.77
184.48
182.17
178.17
172.89
166.75
160.09
153.16
146.10
138.99
131.86
124.76
117.76
110.92
104.32
98.00
92.01
86.36
81.06
76.12
71.54
67.34
63.53
60.09
57.05
54.40
52.14
50.26
48.75
47.59
46.73
46.09
45.58
45.05
44.34
43.27
41.67
39.39
36.34
32.46
27.80
22.40
16.44
10.12
3.71
-2.55
-8.38
-13.58
-17.96
-21.42
-23.91
-25.43
-26.07
-25.93
-25.14
-23.85
-22.18
-20.25
-18.14
-15.91
-13.58
-11.18
-8.73
-6.23
-3.66
-1.02
1.73
4.59
7.59
10.76
14.04
17.42
20.86
24.35
27.89
31.49
35.16
38.93
42.87
46.89
50.95
55.04
59.15
63.31
67.56
71.94
76.54
81.47
86.60
91.85
97.21
102.65
108.17
113.78
119.50
125.34
131.35
137.22
142.71
147.57
151.53
154.29
155.44
154.46
150.63
145.29
138.93
131.87
124.38
116.65
108.85
101.14
93.70
86.69
80.30
74.40
68.91
63.78
58.96
54.41
50.11
46.03
42.18
38.60
35.12
31.65
28.14
24.61
21.09
17.65
14.39
11.41
8.83
6.62
4.75
3.20
1.98
1.03
0.32
-0.18
-0.52
-0.72
-0.84
-0.93
-1.04
-1.18
-1.38
-1.65
-2.02
-2.48
-3.05
-3.73
-4.50
-5.38
-6.38
-7.50
-8.77
-10.19
-11.76
-13.42
-15.09
-16.69
-18.13
-19.39
-20.44
-21.34
-22.15
-22.91
-23.63
-24.26
-24.77
-25.11
-25.35
-25.62
-26.16
-27.14
-28.67
-30.71
-33.09
-35.54
-37.90
-40.16
-42.54
-45.39
-49.10
-53.87
-59.63
-66.06
-72.69
-79.17
-85.41
-91.71
-98.63
-106.78
-116.56
-127.90
-140.39
-153.32
-166.07
-178.31
-190.17
-202.21
-215.40
-230.85
-249.50
-271.58
-296.09
-320.60
-341.48
-354.90
-358.04
-350.06
-332.32
-307.81
-280.01
-251.88
-225.30
-201.18
-179.79
-161.11
-144.87
-130.46
-116.84
-102.86
-87.63
-70.96
-53.48
-36.39
-21.19
-9.25
-1.60
1.24
-0.54
-5.83
-12.66
-18.57
-21.23
-19.34
-13.04
-3.82
6.20
15.22
22.49
28.41
34.05
40.32
47.36
54.34
59.87
62.70
62.34
59.45
55.54
52.51
51.87
54.22
59.13
65.19
70.41
72.65
70.25
62.58
50.28
35.24
20.01
6.98
-2.22
-7.00
-7.54
-4.25
2.50
12.22
23.90
35.62
44.71
48.59
45.78
36.49
22.65
7.12
-7.25
-18.42
-25.52
-28.82
-29.32
-28.24
-26.69
-25.35
-24.35
-23.42
-22.13
-20.27
-18.20
-16.84
-17.38
-20.71
-26.93
-35.17
-43.92
-51.61
-57.21
-60.50
-61.94
-62.24
-62.02
-61.52
-60.43
-57.88
-52.52
-42.93
-28.20
-8.60
14.11
37.05
57.16
72.32
82.18
87.93
91.48
94.22
96.33
96.88
94.58
88.76
79.81
69.07
58.09
48.01
39.17
31.23
23.66
16.20
9.19
3.42
-0.25
-1.39
-0.21
2.34
4.89
6.15
5.54
3.50
1.41
1.05
3.75
9.60
17.28
24.43
28.70
28.60
24.09
16.39
7.33
-1.37
-8.61
-13.83
-16.80
-17.45
-15.85
-12.41
-8.18
-4.59
-3.13
-4.63
-8.80
-14.16
-18.54
-20.00
-17.59
-11.74
-3.89
4.16
11.00
16.04
19.55
22.18
24.60
27.12
29.61
31.59
32.39
31.40
28.29
23.24
16.97
10.58
5.11
1.20
-1.10
-2.24
-2.73
-2.90
-2.82
-2.52
-2.26
-2.57
-3.99
-6.79
-10.75
-15.39
-20.25
-25.23
-30.49
-36.11
-41.76
-46.68
-49.98
-51.35
-51.40
-51.51
-53.21
-57.25
-63.17
-69.61
-75.01
-78.47
-80.10
-80.65
-80.84
-80.78
-79.92
-77.50
-72.97
-66.10
-56.74
-44.56
-29.31
-11.37
7.69
25.25
38.61
46.34
49.09
49.26
49.58
51.57
54.73
57.10
56.72
53.02
47.26
41.79
38.67
38.53
40.43
42.56
43.32
42.15
39.68
37.27
36.45
38.46
44.00
53.10
65.02
78.22
90.53
99.59
103.44
101.09
92.82
79.86
64.11
47.66
32.64
21.09
14.74
14.54
20.28
30.33
42.23
53.49
62.65
69.66
75.47
81.08
86.61
91.05
92.71
90.29
83.58
73.75
62.88
53.28
46.98
45.59
50.27
61.56
78.97
100.48
122.30
139.58
147.82
144.52
130.22
108.06
82.34
56.41
31.22
5.33
-23.73
-57.46
-94.87
-132.46
-165.54
-190.28
-205.28
-211.94
-213.53
-213.58
-214.48
-216.75
-219.02
-218.56
-212.12
-196.95
-171.90
-138.03
-98.70
-58.72
-23.03
4.82
23.58
34.24
39.25
41.41
42.98
45.25
48.73
53.28
58.39
63.18
66.41
66.63
62.50
53.28
39.16
21.50
2.68
-14.54
-27.84
-36.23
-40.29
-41.97
-43.62
-46.91
-51.99
-57.46
-61.10
-61.05
-56.75
-49.24
-40.64
-33.14
-28.20
-26.27
-27.10
-30.26
-35.48
-42.59
-51.19
-60.28
-68.49
-74.46
-77.42
-77.45
-75.33
-72.11
-68.64
-65.23
-61.62
-57.04
-50.42
-40.54
-26.41
-7.61
15.27
40.57
65.76
88.18
105.80
117.86
125.07
129.14
132.09
135.53
140.32
146.57
153.78
161.04
167.10
170.42
169.38
162.78
150.36
133.14
113.24
93.19
75.01
59.56
46.48
34.66
22.97
10.81
-1.68
-13.93
-25.27
-35.35
-44.11
-51.70
-58.26
-63.84
-68.50
-72.40
-75.85
-79.21
-82.49
-85.12
-85.93
-83.56
-77.02
-66.33
-52.64
-37.97
-24.42
-13.48
-5.54
0.10
4.73
9.76
16.09
23.83
32.23
39.83
44.93
46.15
42.92
35.78
26.36
16.89
9.50
5.49
4.96
6.85
9.43
10.90
10.06
6.52
0.67
-6.69
-14.70
-22.74
-30.49
-37.79
-44.49
-50.46
-55.59
-59.95
-63.82
-67.60
-71.61
-76.00
-80.70
-85.45
-89.95
-93.87
-96.89
-98.60
-98.61
-96.58
-92.38
-86.16
-78.27
-69.16
-59.22
-48.84
-38.44
-28.59
-19.84
-12.60
-6.90
-2.34
1.73
5.93
10.57
15.59
20.67
25.47
29.74
33.30
35.95
37.51
38.00
37.76
37.43
37.72
38.88
40.40
41.10
39.56
34.92
27.43
18.50
10.21
4.51
2.47
4.01
8.01
12.74
16.34
17.15
13.86
5.65
-7.59
-25.00
-44.57
-63.28
-77.67
-84.70
-82.77
-72.22
-55.42
-36.03
-17.95
-4.16
3.97
6.89
6.46
5.18
5.34
8.34
14.33
22.26
30.33
36.67
39.86
39.36
35.64
29.96
24.17
20.20
19.56
22.82
29.33
37.32
44.48
48.88
49.78
47.88
44.92
42.71
42.26
43.33
44.69
44.86
42.79
38.31
32.01
24.85
17.75
11.37
6.08
1.97
-1.13
-3.82
-7.06
-11.87
-18.76
-27.15
-35.19
-40.22
-39.69
-32.41
-19.12
-2.45
13.96
26.70
33.67
34.49
30.28
22.96
14.48
6.27
-0.93
-6.94
-11.84
-15.74
-18.73
-20.87
-22.30
-23.21
-23.79
-24.04
-23.61
-21.93
-18.34
-12.52
-4.73
4.13
12.70
19.63
24.04
25.77
25.44
24.11
22.86
22.35
22.75
23.79
25.09
26.35
27.53
28.71
30.03
31.49
33.01
34.41
35.50
36.13
36.14
35.44
34.11
32.57
31.61
32.38
36.01
43.24
54.02
67.31
81.25
93.60
102.27
105.94
104.43
98.68
90.43
81.64
73.80
67.56
62.74
58.62
54.52
50.16
45.78
41.92
39.07
37.42
36.84
36.93
37.20
37.10
36.18
34.08
30.65
26.05
20.69
15.11
9.73
4.60
-0.58
-6.31
-13.00
-20.65
-28.81
-36.65
-43.40
-48.64
-52.41
-55.06
-56.88
-57.73
-57.00
-53.85
-47.74
-38.87
-28.21
-17.17
-7.07
1.37
8.02
13.17
17.09
19.87
21.38
21.48
20.19
17.70
14.34
10.53
6.60
2.80
-0.76
-4.15
-7.56
-11.19
-15.04
-18.82
-21.99
-24.06
-24.82
-24.48
-23.52
-22.45
-21.51
-20.72
-19.99
-19.41
-19.28
-19.96
-21.57
-23.77
-25.74
-26.53
-25.57
-23.04
-20.02
-18.12
-18.94
-23.29
-30.83
-40.01
-48.49
-53.76
-53.79
-47.49
-34.99
-17.58
2.54
22.73
40.57
54.44
63.87
69.54
72.82
75.06
77.03
78.74
79.57
78.85
76.20
71.76
66.00
59.47
52.62
45.79
39.26
33.27
27.97
23.23
18.65
13.70
8.05
1.79
-4.48
-9.91
-13.77
-15.85
-16.64
-17.21
-18.95
-23.12
-30.51
-41.22
-54.58
-69.34
-83.90
-96.78
-106.89
-113.93
-118.32
-121.07
-123.28
-125.54
-127.39
-127.18
-122.47
-110.95
-91.41
-64.45
-32.50
0.87
31.98
58.12
78.01
91.77
100.48
105.57
108.40
109.86
110.39
109.98
108.39
105.37
100.99
95.65
90.01
84.74
80.14
76.11
72.24
68.14
63.74
59.27
55.05
51.16
47.26
42.79
37.31
30.85
24.03
17.68
12.44
8.28
4.46
-0.08
-6.18
-13.95
-22.76
-31.55
-39.34
-45.73
-51.05
-56.17
-61.94
-68.73
-76.06
-82.65
-86.94
-87.74
-84.85
-79.20
-72.48
-66.46
-62.07
-59.08
-56.19
-51.83
-45.04
-36.01
-26.05
-16.93
-10.08
-6.01
-4.18
-3.49
-2.72
-1.04
1.99
6.46
12.24
18.91
25.69
31.44
34.97
35.50
33.05
28.47
23.10
18.12
14.12
10.95
8.01
4.74
1.00
-2.86
-6.34
-9.00
-10.81
-12.09
-13.30
-14.93
-17.39
-21.05
-26.17
-32.79
-40.43
-47.97
-53.73
-55.92
-53.29
-45.65
-34.04
-20.33
-6.58
5.61
15.43
22.86
28.31
32.24
34.99
36.67
37.30
36.89
35.49
33.21
30.20
26.68
22.98
19.48
16.58
14.54
13.43
13.04
13.08
13.29
13.58
14.00
14.61
15.36
16.01
16.25
15.73
14.28
11.80
8.29
3.78
-1.62
-7.63
-13.71
-19.15
-23.31
-25.98
-27.40
-28.37
-29.93
-33.02
-38.20
-45.39
-53.79
-62.00
-68.25
-70.93
-68.96
-62.21
-51.45
-38.03
-23.41
-8.63
5.70
19.31
31.84
42.62
50.75
55.40
56.19
53.49
48.32
42.12
36.23
31.59
28.55
26.98
26.46
26.62
27.27
28.39
30.01
31.99
33.98
35.45
35.96
35.40
34.06
32.50
31.28
30.69
30.72
31.16
31.73
32.33
32.95
33.57
33.96
33.67
32.04
28.48
22.55
14.10
3.23
-9.65
-23.78
-37.93
-50.44
-59.49
-63.60
-62.18
-55.76
-45.85
-34.30
-22.62
-11.54
-1.06
9.05
18.67
26.93
32.40
33.55
29.55
20.62
8.27
-5.26
-17.59
-26.93
-32.47
-34.44
-33.76
-31.53
-28.60
-25.42
-22.25
-19.30
-16.96
-15.76
-16.07
-17.76
-20.12
-22.09
-22.69
-21.57
-19.26
-16.95
-15.94
-17.02
-20.03
-24.05
-27.81
-30.33
-31.31
-31.16
-30.66
-30.68
-31.79
-34.14
-37.52
-41.22
-44.22
-45.31
-43.43
-38.14
-29.80
-19.50
-8.64
1.69
10.98
19.41
27.41
35.23
42.52
48.35
51.58
51.34
47.51
40.80
32.45
23.83
15.92
9.23
3.85
-0.22
-2.85
-3.79
-2.84
-0.20
3.46
7.04
9.39
9.67
7.59
3.47
-1.90
-7.54
-12.58
-16.50
-19.23
-21.11
-22.61
-24.08
-25.54
-26.64
-26.94
-26.31
-25.13
-24.37
-25.22
-28.66
-35.04
-43.89
-54.04
-63.69
-70.87
-73.69
-70.82
-61.89
-47.69
-30.09
-11.62
5.30
19.04
29.08
35.87
40.30
43.20
45.00
45.77
45.45
44.08
41.87
39.09
36.03
32.88
29.84
27.18
25.22
24.29
24.49
25.62
27.17
28.43
28.79
27.95
25.97
23.32
20.62
18.42
16.95
16.03
15.18
13.88
11.75
8.82
5.38
1.91
-1.15
-3.53
-5.14
-6.06
-6.49
-6.79
-7.35
-8.46
-10.08
-11.84
-13.06
-12.99
-11.13
-7.31
-1.74
5.16
12.81
20.56
27.58
32.91
35.64
35.02
30.77
23.13
12.82
0.92
-11.38
-22.92
-32.77
-40.28
-45.13
-47.28
-46.90
-44.33
-39.98
-34.35
-27.93
-21.10
-14.01
-6.53
1.64
10.76
20.78
31.13
40.87
48.88
54.21
56.30
55.10
51.11
45.24
38.71
32.74
28.32
25.81
24.87
24.54
23.57
20.98
16.43
10.31
3.64
-2.37
-6.67
-8.60
-7.87
-4.42
1.66
10.26
21.14
33.83
47.52
61.03
72.94
81.85
86.73
87.22
83.71
77.27
69.24
60.87
53.03
46.05
39.86
34.20
28.84
23.78
19.17
15.30
12.40
10.52
9.42
8.64
7.54
5.54
2.25
-2.40
-8.24
-14.88
-21.87
-28.75
-35.11
-40.61
-45.01
-48.22
-50.38
-51.87
-53.27
-55.23
-58.29
-62.74
-68.44
-74.78
-80.86
-85.62
-88.19
-88.03
-85.04
-79.50
-71.94
-62.91
-52.88
-42.15
-30.97
-19.62
-8.60
1.31
9.19
14.17
15.80
14.26
10.41
5.61
1.35
-1.21
-1.43
0.63
4.45
9.24
14.22
18.82
22.69
25.75
28.08
29.81
31.06
31.87
32.15
31.81
30.80
29.17
27.13
24.98
23.00
21.34
19.91
18.44
16.59
14.08
10.82
6.96
2.72
-1.70
-6.24
-10.93
-15.74
-20.40
-24.41
-27.06
-27.73
-26.02
-21.87
-15.49
-7.34
1.90
11.45
20.42
28.02
33.69
37.19
38.60
38.22
36.43
33.63
30.29
26.90
23.93
21.63
19.97
18.63
17.28
15.76
14.20
12.97
12.35
12.31
12.40
11.94
10.27
7.03
2.29
-3.50
-9.73
-15.86
-21.54
-26.65
-31.20
-35.22
-38.78
-41.87
-44.62
-47.25
-50.04
-53.24
-57.00
-61.33
-66.11
-71.14
-76.00
-80.11
-82.64
-82.77
-79.84
-73.66
-64.56
-53.20
-40.33
-26.60
-12.50
1.52
14.95
27.17
37.56
45.69
51.39
54.74
55.97
55.44
53.52
50.67
47.39
44.19
41.49
39.56
38.46
38.13
38.40
39.07
39.93
40.75
41.28
41.25
40.41
38.59
35.76
32.07
27.84
23.42
19.12
15.18
11.77
8.95
6.69
4.91
3.47
2.18
0.80
-0.93
-3.26
-6.42
-10.54
-15.53
-20.95
-26.04
-29.69
-30.69
-28.09
-21.41
-10.85
2.70
17.78
32.57
45.25
54.32
58.97
59.26
56.04
50.76
44.93
39.77
35.88
33.34
31.83
30.88
30.16
29.49
28.82
28.09
27.25
26.08
24.38
21.93
18.60
14.44
9.57
4.21
-1.41
-7.15
-12.94
-18.75
-24.52
-30.15
-35.45
-40.26
-44.49
-48.15
-51.40
-54.47
-57.64
-61.14
-65.07
-69.35
-73.64
-77.36
-79.79
-80.21
-78.10
-73.18
-65.48
-55.28
-43.08
-29.57
-15.56
-1.99
10.24
20.42
28.15
33.40
36.47
37.89
38.27
38.15
37.98
38.05
38.40
38.95
39.48
39.81
39.93
40.01
40.35
41.22
42.62
44.14
45.10
44.72
42.42
38.07
32.06
25.15
18.23
12.02
6.83
2.62
-1.00
-4.51
-8.30
-12.54
-17.09
-21.69
-26.03
-30.05
-33.93
-38.01
-42.58
-47.63
-52.71
-56.95
-59.41
-59.26
-56.10
-50.01
-41.57
-31.62
-21.17
-11.14
-2.27
4.96
10.33
13.81
15.49
15.43
13.76
10.73
6.72
2.33
-1.76
-5.00
-6.97
-7.50
-6.65
-4.67
-1.99
0.81
3.05
4.16
3.87
2.31
-0.01
-2.33
-3.97
-4.53
-3.96
-2.58
-0.92
0.43
1.04
0.71
-0.44
-2.06
-3.76
-5.34
-6.87
-8.67
-11.12
-14.42
-18.49
-22.95
-27.28
-30.88
-33.21
-33.80
-32.28
-28.35
-21.95
-13.15
-2.36
9.72
22.15
33.84
43.77
51.24
55.98
58.16
58.24
56.76
54.19
50.87
47.09
43.17
39.44
36.17
33.51
31.45
29.85
28.54
27.37
26.22
24.92
23.33
21.29
18.68
15.49
11.75
7.53
2.96
-1.71
-6.12
-9.83
-12.51
-14.10
-14.96
-15.72
-17.07
-19.49
-23.09
-27.70
-32.97
-38.55
-44.13
-49.36
-53.76
-56.82
-58.05
-57.28
-54.71
-50.77
-45.98
-40.62
-34.70
-28.07
-20.61
-12.44
-4.00
4.09
11.26
17.19
21.85
25.44
28.17
30.08
31.09
30.98
29.67
27.29
24.30
21.36
19.22
18.48
19.42
21.89
25.28
28.69
31.18
32.03
31.04
28.48
24.96
21.18
17.70
14.82
12.61
10.91
9.31
7.26
4.12
-0.49
-6.48
-13.15
-19.38
-24.12
-26.93
-28.25
-29.26
-31.23
-34.84
-39.68
-44.44
-47.40
-47.21
-43.41
-36.53
-27.76
-18.46
-9.70
-2.08
4.25
9.36
13.33
16.18
17.79
18.03
16.79
14.09
10.14
5.38
0.41
-4.14
-7.75
-10.14
-11.33
-11.59
-11.33
-10.91
-10.56
-10.28
-9.93
-9.38
-8.75
-8.48
-9.34
-12.15
-17.51
-25.55
-35.84
-47.52
-59.55
-70.86
-80.51
-87.87
-92.75
-95.56
-97.36
-99.72
-104.25
-111.99
-122.92
-135.87
-148.84
-159.57
-166.16
-167.55
-163.59
-154.92
-142.66
-128.20
-112.88
-97.73
-83.35
-69.85
-56.95
-44.22
-31.42
-18.61
-6.26
4.89
14.13
21.01
25.59
28.37
30.13
31.62
33.25
34.90
36.06
36.18
35.03
33.05
31.27
30.97
33.11
37.74
43.92
49.91
53.82
54.26
50.91
44.58
36.82
29.51
24.26
22.12
23.48
28.15
35.40
44.07
52.67
59.56
63.23
62.69
57.69
48.84
37.45
25.30
14.18
5.54
0.19
-1.84
-1.16
1.19
4.17
7.05
9.55
11.78
14.01
16.31
18.47
20.05
20.63
19.97
18.16
15.44
12.11
8.36
4.28
0.05
-4.02
-7.46
-9.73
-10.48
-9.63
-7.31
-3.84
0.50
5.45
10.73
16.02
20.85
24.73
27.18
27.92
26.90
24.27
20.43
15.83
10.94
6.19
1.90
-1.69
-4.39
-6.05
-6.48
-5.55
-3.28
0.10
4.05
7.83
10.71
12.19
12.21
11.20
10.07
9.91
11.80
16.41
23.92
33.83
45.07
56.20
65.71
72.31
75.24
74.42
70.51
64.74
58.59
53.40
50.10
48.94
49.59
51.29
53.23
54.77
55.70
56.14
56.43
56.78
57.11
57.03
55.97
53.53
49.73
45.08
40.33
36.11
32.64
29.58
26.33
22.40
17.79
13.09
9.27
7.28
7.58
10.00
13.70
17.55
20.42
21.55
20.77
18.50
15.61
13.17
12.08
12.83
15.34
18.96
22.72
25.61
26.98
26.65
24.97
22.52
19.90
17.41
15.05
12.63
10.04
7.44
5.19
3.76
3.44
4.17
5.57
7.15
8.51
9.52
10.35
11.37
12.92
15.25
18.35
21.98
25.54
28.23
29.09
27.26
22.31
14.48
4.78
-5.22
-13.80
-19.65
-22.21
-21.86
-19.71
-17.16
-15.49
-15.52
-17.51
-21.16
-25.80
-30.57
-34.60
-37.21
-37.99
-36.85
-33.96
-29.71
-24.51
-18.74
-12.65
-6.41
-0.10
6.16
12.16
17.54
21.88
24.85
26.36
26.70
26.38
26.02
26.02
26.43
26.93
27.05
26.37
24.78
22.52
20.12
18.08
16.76
16.08
15.65
14.90
13.44
11.22
8.57
6.04
4.10
2.80
1.79
0.37
-2.11
-6.04
-11.36
-17.67
-24.39
-31.04
-37.22
-42.70
-47.30
-50.92
-53.65
-55.78
-57.78
-60.00
-62.42
-64.44
-64.97
-62.83
-57.28
-48.49
-37.50
-25.98
-15.65
-7.81
-3.11
-1.60
-2.97
-6.64
-11.84
-17.61
-22.94
-26.90
-28.96
-29.16
-27.93
-25.76
-22.89
-19.03
-13.60
-6.18
3.09
13.25
22.70
29.81
33.41
33.23
29.89
24.68
19.01
14.04
10.39
8.04
6.51
5.08
3.09
0.14
-3.71
-7.96
-11.90
-14.87
-16.59
-17.44
-18.35
-20.51
-24.78
-31.17
-38.65
-45.32
-49.09
-48.35
-42.59
-32.57
-19.96
-6.74
5.34
15.15
22.18
26.39
27.98
27.35
25.09
21.97
18.93
16.78
16.03
16.72
18.49
20.80
23.22
25.53
27.64
29.39
30.48
30.46
29.04
26.25
22.59
18.82
15.62
13.40
12.06
11.23
10.48
9.55
8.46
7.30
6.16
4.97
3.58
1.89
-0.07
-2.20
-4.43
-6.88
-9.87
-13.77
-18.76
-24.57
-30.47
-35.42
-38.38
-38.63
-35.94
-30.64
-23.45
-15.26
-6.95
0.88
7.91
14.10
19.47
23.95
27.24
28.90
28.54
26.11
22.04
17.20
12.63
9.18
7.23
6.64
6.95
7.66
8.42
9.14
9.78
10.22
10.21
9.43
7.73
5.24
2.39
-0.28
-2.34
-3.64
-4.27
-4.35
-3.87
-2.58
-0.26
3.07
6.88
10.16
11.71
10.64
6.76
0.73
-6.23
-12.70
-17.55
-20.13
-20.27
-18.12
-14.00
-8.36
-1.67
5.62
13.13
20.66
28.04
35.11
41.46
46.43
49.30
49.50
46.94
42.03
35.63
28.66
21.94
15.92
10.71
6.17
2.03
-1.89
-5.67
-9.19
-12.12
-14.07
-14.69
-13.92
-12.05
-9.75
-7.79
-6.86
-7.16
-8.47
-10.17
-11.62
-12.45
-12.77
-13.17
-14.33
-16.74
-20.40
-24.77
-28.96
-32.05
-33.48
-33.26
-31.89
-30.17
-28.80
-28.06
-27.79
-27.44
-26.38
-24.14
-20.46
-15.35
-8.96
-1.57
6.39
14.20
20.92
25.50
27.11
25.45
20.90
14.44
7.34
0.77
-4.43
-7.87
-9.53
-9.62
-8.47
-6.48
-4.05
-1.57
0.62
2.33
3.55
4.42
5.09
5.60
5.86
5.57
4.43
2.28
-0.78
-4.31
-7.65
-10.12
-11.29
-11.09
-9.83
-8.13
-6.62
-5.91
-6.42
-8.44
-12.07
-17.11
-23.00
-28.74
-33.07
-34.82
-33.34
-28.72
-21.76
-13.68
-5.65
1.46
7.27
11.69
14.78
16.67
17.50
17.50
16.96
16.10
14.96
13.40
11.19
8.19
4.58
0.88
-2.20
-4.08
-4.59
-4.11
-3.43
-3.37
-4.44
-6.54
-9.08
-11.32
-12.71
-13.32
-13.79
-15.12
-18.19
-23.31
-30.02
-37.15
-43.20
-46.79
-47.19
-44.53
-39.66
-33.90
-28.50
-24.35
-21.83
-20.85
-20.96
-21.52
-21.75
-20.86
-18.19
-13.32
-6.19
2.86
13.20
24.01
34.42
43.56
50.66
55.07
56.46
54.89
50.86
45.20
38.91
32.96
28.16
24.99
23.56
23.58
24.42
25.28
25.47
24.65
22.97
20.95
19.23
18.21
17.94
18.17
18.49
18.60
18.38
17.86
17.05
15.93
14.39
12.39
10.03
7.60
5.45
3.90
3.08
2.89
2.98
2.84
1.93
-0.30
-4.16
-9.63
-16.26
-23.19
-29.27
-33.41
-34.89
-33.51
-29.61
-23.90
-17.19
-10.20
-3.51
2.38
6.99
9.88
10.70
9.36
6.14
1.66
-3.18
-7.50
-10.58
-12.07
-11.95
-10.53
-8.33
-5.91
-3.88
-2.75
-2.84
-4.17
-6.43
-9.01
-11.28
-12.79
-13.45
-13.62
-13.93
-14.96
-17.01
-19.91
-23.10
-25.88
-27.68
-28.40
-28.39
-28.30
-28.76
-30.06
-32.05
-34.26
-36.16
-37.40
-37.89
-37.77
-37.28
-36.71
-36.37
-36.47
-36.89
-36.98
-35.48
-30.93
-22.26
-9.40
6.36
22.77
37.33
48.10
54.24
55.98
54.28
50.26
44.90
38.81
32.42
26.05
20.09
15.08
11.66
10.38
11.64
15.40
21.28
28.64
36.79
45.18
53.41
61.11
67.80
72.86
75.59
75.47
72.36
66.57
58.84
50.11
41.32
33.20
26.13
20.15
14.93
10.00
4.86
-0.84
-7.16
-13.82
-20.21
-25.55
-29.03
-29.96
-28.04
-23.44
-16.84
-9.35
-2.18
3.58
7.31
8.83
8.32
6.10
2.41
-2.63
-9.01
-16.55
-24.85
-33.15
-40.55
-46.17
-49.44
-50.17
-48.54
-44.92
-39.74
-33.46
-26.60
-19.89
-14.27
-10.73
-9.97
-12.17
-16.80
-22.79
-28.90
-34.07
-37.78
-40.00
-41.03
-41.22
-40.80
-39.80
-38.25
-36.26
-34.17
-32.44
-31.48
-31.42
-32.05
-32.81
-33.01
-32.01
-29.45
-25.27
-19.71
-13.20
-6.24
0.69
7.23
13.08
18.08
22.07
24.96
26.67
27.22
26.69
25.36
23.57
21.66
19.85
18.18
16.61
15.16
14.07
13.68
14.28
15.91
18.20
20.51
22.14
22.63
21.81
19.86
17.06
13.72
10.07
6.33
2.72
-0.52
-3.27
-5.54
-7.52
-9.44
-11.55
-14.02
-16.97
-20.43
-24.27
-28.17
-31.60
-33.88
-34.31
-32.39
-27.98
-21.32
-12.99
-3.76
5.59
14.43
22.35
29.16
34.76
39.03
41.72
42.49
41.00
37.14
31.17
23.78
15.98
8.77
2.89
-1.35
-4.11
-5.80
-6.83
-7.49
-7.81
-7.66
-6.88
-5.39
-3.33
-1.06
0.90
2.06
2.06
0.92
-1.02
-3.16
-5.00
-6.34
-7.40
-8.69
-10.67
-13.56
-17.21
-21.33
-25.55
-29.57
-33.04
-35.46
-36.22
-34.78
-31.05
-25.54
-19.29
-13.39
-8.55
-4.81
-1.65
1.57
5.24
9.26
13.17
16.46
18.85
20.31
21.02
21.17
20.91
20.31
19.43
18.36
17.13
15.71
13.90
11.43
8.00
3.39
-2.41
-9.18
-16.33
-23.03
-28.32
-31.42
-32.00
-30.33
-27.20
-23.70
-20.93
-19.70
-20.48
-23.27
-27.68
-32.94
-37.98
-41.71
-43.26
-42.27
-38.94
-33.90
-27.79
-21.07
-13.75
-5.60
3.64
13.80
24.14
33.43
40.32
43.86
43.97
41.58
38.31
35.85
35.31
36.77
39.31
41.57
42.38
41.31
38.74
35.56
32.64
30.49
29.13
28.31
27.66
26.93
25.99
24.79
23.24
21.19
18.41
14.64
9.76
3.99
-1.98
-7.04
-9.91
-9.64
-6.08
-0.05
6.79
12.54
15.75
15.83
13.14
8.65
3.46
-1.56
-5.98
-9.67
-12.67
-14.99
-16.49
-16.97
-16.21
-14.04
-10.54
-6.12
-1.49
2.41
4.79
5.38
4.64
3.76
4.25
7.26
13.18
21.41
30.72
39.73
47.31
52.76
55.57
55.33
51.73
44.92
35.73
25.77
16.90
10.63
7.43
6.66
6.93
6.79
5.29
2.14
-2.56
-8.60
-15.96
-24.67
-34.53
-44.92
-54.76
-62.81
-68.11
-70.25
-69.47
-66.44
-61.88
-56.29
-49.78
-42.29
-33.77
-24.46
-14.81
-5.39
3.38
11.37
18.65
25.20
30.74
34.63
36.10
34.67
30.52
24.66
18.64
14.08
12.08
12.81
15.57
19.10
22.09
23.67
23.56
22.05
19.61
16.63
13.27
9.48
5.17
0.29
-5.06
-10.72
-16.46
-22.00
-27.02
-31.25
-34.49
-36.70
-38.07
-38.89
-39.43
-39.93
-40.53
-41.32
-42.38
-43.64
-44.73
-44.95
-43.37
-39.13
-31.82
-21.67
-9.61
3.05
14.93
24.92
32.27
36.69
38.28
37.51
35.13
32.08
29.23
27.18
26.10
25.75
25.65
25.28
24.30
22.60
20.28
17.60
14.98
12.86
11.68
11.69
12.80
14.56
16.24
17.03
16.31
13.86
9.87
4.94
-0.11
-4.51
-7.69
-9.54
-10.47
-11.30
-13.06
-16.57
-22.17
-29.48
-37.42
-44.45
-48.96
-49.72
-46.18
-38.65
-28.19
-16.30
-4.48
6.11
14.86
21.62
26.56
29.82
31.48
31.53
30.07
27.42
24.16
20.95
18.35
16.69
16.10
16.52
17.81
19.74
21.90
23.71
24.40
23.35
20.28
15.42
9.53
3.61
-1.40
-4.97
-7.06
-8.02
-8.42
-8.81
-9.62
-11.04
-13.06
-15.43
-17.77
-19.65
-20.80
-21.15
-20.96
-20.57
-20.28
-20.08
-19.71
-18.73
-16.82
-13.90
-10.15
-5.90
-1.42
3.09
7.50
11.57
14.84
16.63
16.16
12.89
6.79
-1.37
-10.17
-17.86
-22.85
-24.34
-22.57
-18.73
-14.53
-11.50
-10.58
-11.76
-14.43
-17.70
-20.89
-23.81
-26.67
-29.89
-33.78
-38.37
-43.36
-48.25
-52.47
-55.53
-57.05
-56.85
-54.95
-51.56
-47.12
-42.19
-37.38
-33.24
-30.24
-28.64
-28.44
-29.37
-30.82
-31.90
-31.73
-29.63
-25.46
-19.70
-13.21
-6.95
-1.60
2.67
6.17
9.45
13.06
17.21
21.74
26.19
30.01
32.81
34.51
35.35
35.80
36.36
37.29
38.63
40.28
42.15
44.29
46.81
49.66
52.47
54.53
55.06
53.57
50.05
45.05
39.45
34.16
29.78
26.52
24.24
22.56
20.99
19.11
16.65
13.52
9.81
5.66
1.26
-3.14
-7.09
-9.88
-10.66
-8.70
-3.78
3.64
12.45
21.35
29.23
35.57
40.36
43.89
46.33
47.64
47.63
46.11
43.11
38.89
33.88
28.51
23.15
18.04
13.38
9.32
5.95
3.30
1.32
-0.13
-1.30
-2.53
-4.13
-6.35
-9.20
-12.40
-15.44
-17.75
-18.95
-19.03
-18.34
-17.36
-16.58
-16.32
-16.70
-17.75
-19.41
-21.62
-24.23
-27.08
-29.97
-32.79
-35.41
-37.67
-39.26
-39.73
-38.65
-35.80
-31.31
-25.63
-19.32
-12.81
-6.25
0.42
7.19
13.83
19.76
24.18
26.42
26.19
23.72
19.70
15.03
10.58
7.06
4.92
4.40
5.51
7.99
11.38
14.97
18.15
20.43
21.63
21.81
21.21
20.06
18.55
16.79
14.85
12.79
10.62
8.31
5.80
3.12
0.31
-2.50
-5.26
-8.01
-10.97
-14.39
-18.47
-23.22
-28.40
-33.54
-38.02
-41.15
-42.30
-40.97
-37.03
-30.76
-22.89
-14.42
-6.29
0.94
7.18
12.77
18.11
23.31
28.05
31.62
33.38
33.01
30.77
27.39
23.76
20.60
18.27
16.79
16.04
15.90
16.30
17.15
18.19
19.02
19.19
18.43
16.73
14.37
11.72
8.95
6.04
2.77
-1.06
-5.46
-10.21
-14.94
-19.38
-23.40
-27.04
-30.40
-33.57
-36.61
-39.60
-42.79
-46.48
-50.88
-55.83
-60.72
-64.54
-66.18
-64.84
-60.25
-52.71
-42.87
-31.54
-19.39
-6.99
5.09
16.16
25.40
32.08
35.75
36.49
34.87
31.79
28.11
24.48
21.26
18.59
16.61
15.43
15.21
15.99
17.61
19.70
21.81
23.52
24.52
24.69
24.01
22.51
20.32
17.59
14.50
11.23
7.93
4.66
1.49
-1.50
-4.20
-6.52
-8.39
-9.93
-11.39
-13.09
-15.36
-18.41
-22.26
-26.72
-31.32
-35.43
-38.35
-39.46
-38.44
-35.28
-30.24
-23.69
-15.93
-7.25
2.09
11.62
20.63
28.26
33.72
36.57
36.90
35.17
32.06
28.27
24.34
20.75
17.88
16.03
15.36
15.78
16.98
18.53
20.06
21.29
22.14
22.55
22.41
21.55
19.85
17.42
14.55
11.68
9.09
6.85
4.79
2.66
0.33
-2.10
-4.46
-6.56
-8.42
-10.24
-12.24
-14.61
-17.48
-20.87
-24.78
-29.07
-33.37
-37.06
-39.37
-39.59
-37.37
-32.76
-26.30
-18.70
-10.68
-2.87
4.32
10.57
15.68
19.58
22.28
23.99
24.89
25.23
25.14
24.71
23.98
22.96
21.68
20.15
18.47
16.78
15.34
14.48
14.46
15.27
16.66
18.03
18.73
18.25
16.45
13.63
10.34
7.14
4.33
1.88
-0.50
-3.20
-6.47
-10.33
-14.63
-19.13
-23.59
-27.90
-32.01
-36.04
-40.20
-44.79
-50.03
-55.89
-61.92
-67.16
-70.38
-70.37
-66.36
-58.33
-47.06
-33.89
-20.29
-7.50
3.74
13.13
20.68
26.42
30.29
32.19
32.08
30.20
27.16
23.77
20.78
18.66
17.48
17.05
17.09
17.41
17.89
18.43
18.85
18.86
18.26
17.01
15.31
13.52
11.93
10.59
9.30
7.73
5.56
2.68
-0.80
-4.60
-8.38
-11.80
-14.59
-16.62
-17.97
-18.97
-20.15
-22.05
-25.06
-29.13
-33.76
-38.02
-40.79
-41.17
-38.70
-33.49
-26.12
-17.50
-8.60
-0.23
7.01
12.86
17.31
20.54
22.76
24.13
24.62
24.15
22.67
20.32
17.52
14.92
13.12
12.45
12.75
13.40
13.50
12.25
9.23
4.62
-0.90
-6.48
-11.43
-15.51
-18.97
-22.41
-26.50
-31.62
-37.72
-44.24
-50.23
-54.55
-56.11
-54.12
-48.42
-39.62
-29.04
-18.52
-9.89
-4.47
-2.74
-4.24
-7.81
-12.06
-15.74
-18.06
-18.68
-17.67
-15.35
-12.27
-9.11
-6.54
-5.02
-4.61
-4.82
-4.75
-3.50
-0.54
3.98
9.31
14.44
18.65
21.90
24.88
28.69
34.42
42.57
52.83
64.09
74.80
83.45
89.06
91.47
91.33
89.84
88.26
87.30
86.77
85.52
81.91
74.59
63.28
49.21
34.91
23.39
17.02
16.87
22.47
32.19
43.95
56.01
67.16
76.70
84.21
89.21
91.32
90.32
86.44
80.40
73.31
66.36
60.65
56.84
54.95
54.22
53.22
50.12
43.32
31.88
15.78
-4.18
-26.86
-51.35
-77.27
-104.59
-133.19
-162.32
-190.46
-215.65
-236.10
-250.74
-259.53
-263.16
-262.51
-258.16
-250.09
-237.81
-220.80
-198.99
-173.04
-144.45
-115.24
-87.42
-62.61
-41.66
-24.64
-11.07
-0.14
9.00
17.22
25.40
34.51
45.47
58.85
74.67
92.16
109.78
125.56
137.38
143.56
143.16
136.30
124.14
108.74
92.53
77.86
66.48
59.31
56.57
57.94
62.88
70.74
80.76
92.00
103.43
113.94
122.42
127.85
129.42
126.80
120.36
111.21
101.03
91.50
83.72
77.83
73.01
68.00
61.76
54.02
45.31
36.61
28.83
22.32
16.83
11.66
6.19
0.18
-6.06
-11.81
-16.25
-18.84
-19.60
-19.16
-18.57
-19.01
-21.36
-25.99
-32.60
-40.22
-47.43
-52.52
-53.82
-50.03
-40.55
-25.84
-7.43
12.30
30.58
44.90
53.54
55.85
52.24
44.00
33.05
21.64
12.05
6.20
5.19
8.99
16.48
25.68
34.37
40.51
42.62
40.01
32.64
21.02
5.86
-12.10
-32.26
-53.92
-76.07
-97.02
-114.41
-125.67
-128.89
-123.78
-112.20
-97.90
-85.41
-78.60
-79.42
-87.43
-100.22
-114.43
-126.71
-134.37
-135.50
-128.83
-113.81
-90.85
-61.95
-31.00
-3.45
14.86
19.45
8.80
-14.93
-46.39
-78.71
-105.51
-122.53
-128.35
-123.90
-111.44
-93.37
-71.70
-48.08
-24.27
-2.50
14.71
25.18
27.86
23.43
14.19
3.40
-5.75
-10.97
-11.31
-6.99
1.00
11.43
23.19
35.30
46.89
57.12
65.25
70.77
73.52
73.74
71.96
68.85
64.95
60.55
55.70
50.25
44.10
37.36
30.48
24.07
18.73
14.71
11.84
9.53
7.05
3.83
-0.32
-5.15
-10.07
-14.34
-17.24
-18.23
-17.03
-13.65
-8.45
-2.04
4.81
11.20
16.34
19.65
20.91
20.30
18.27
15.37
12.00
8.30
4.15
-0.55
-5.72
-10.95
-15.60
-19.01
-20.76
-20.76
-19.19
-16.38
-12.66
-8.42
-4.12
-0.36
2.20
3.03
1.92
-0.91
-4.85
-9.08
-12.81
-15.56
-17.17
-17.87
-18.01
-18.04
-18.23
-18.69
-19.39
-20.23
-21.21
-22.48
-24.27
-26.77
-29.98
-33.51
-36.63
-38.46
-38.17
-35.25
-29.63
-21.68
-11.97
-1.13
10.29
21.79
32.82
42.74
50.85
56.54
59.46
59.65
57.46
53.52
48.50
43.06
37.81
33.25
29.77
27.56
26.51
26.21
26.05
25.43
23.92
21.46
18.31
14.96
11.87
9.27
7.13
5.12
2.86
0.12
-3.09
-6.46
-9.58
-12.09
-13.90
-15.30
-16.94
-19.55
-23.77
-29.78
-37.09
-44.63
-50.93
-54.54
-54.52
-50.56
-43.06
-32.85
-20.96
-8.41
3.85
15.10
24.81
32.76
39.00
43.75
47.15
49.24
49.87
48.94
46.65
43.53
40.41
38.21
37.58
38.77
41.57
45.42
49.55
53.14
55.41
55.66
53.45
48.71
41.72
33.15
23.88
14.77
6.56
-0.31
-5.69
-9.69
-12.58
-14.79
-16.75
-18.91
-21.62
-25.14
-29.60
-35.00
-41.10
-47.40
-53.11
-57.23
-58.77
-57.11
-52.18
-44.56
-35.23
-25.26
-15.49
-6.37
1.96
9.48
16.15
21.84
26.33
29.38
30.83
30.56
28.63
25.28
21.00
16.51
12.61
9.95
8.86
9.18
10.31
11.43
11.77
10.83
8.48
4.98
0.72
-3.91
-8.61
-13.23
-17.63
-21.64
-25.12
-28.02
-30.50
-32.89
-35.58
-38.79
-42.39
-45.99
-49.10
-51.48
-53.23
-54.79
-56.60
-58.80
-61.02
-62.40
-61.90
-58.63
-52.15
-42.59
-30.67
-17.46
-4.14
8.19
18.73
27.03
33.04
37.04
39.43
40.57
40.68
39.86
38.17
35.82
33.15
30.54
28.25
26.34
24.65
22.97
21.27
19.67
18.37
17.46
16.78
15.99
14.74
12.87
10.52
7.97
5.51
3.28
1.23
-0.78
-2.90
-5.21
-7.81
-10.73
-14.05
-17.77
-21.81
-26.05
-30.32
-34.45
-38.27
-41.55
-43.91
-44.84
-43.86
-40.57
-34.86
-26.95
-17.25
-6.32
5.22
16.72
27.52
36.91
44.32
49.37
51.99
52.46
51.30
49.09
46.37
43.45
40.45
37.40
34.37
31.43
28.78
26.58
24.96
23.93
23.37
23.03
22.57
21.64
20.02
17.65
14.63
11.21
7.64
4.05
0.51
-2.98
-6.36
-9.47
-12.10
-14.14
-15.67
-17.03
-18.71
-21.17
-24.73
-29.41
-34.90
-40.59
-45.70
-49.39
-50.92
-49.86
-46.17
-40.17
-32.51
-23.89
-14.91
-5.99
2.70
11.06
18.89
25.81
31.29
34.76
35.86
34.56
31.24
26.61
21.59
17.06
13.79
12.24
12.61
14.75
18.25
22.48
26.64
29.88
31.50
31.13
28.80
24.98
20.33
15.52
10.95
6.74
2.74
-1.22
-5.20
-9.08
-12.67
-15.79
-18.45
-20.82
-23.17
-25.78
-28.87
-32.63
-37.16
-42.52
-48.53
-54.74
-60.34
-64.26
-65.47
-63.26
-57.51
-48.69
-37.74
-25.78
-13.88
-2.86
6.68
14.38
20.09
23.79
25.63
25.82
24.64
22.37
19.28
15.71
12.06
8.78
6.26
4.71
4.12
4.27
4.87
5.70
6.66
7.61
8.32
8.45
7.57
5.50
2.42
-1.09
-4.27
-6.54
-7.75
-8.18
-8.36
-8.70
-9.35
-10.13
-10.84
-11.42
-12.17
-13.52
-15.87
-19.28
-23.43
-27.76
-31.74
-34.99
-37.36
-38.77
-38.96
-37.56
-34.09
-28.30
-20.29
-10.62
-0.10
10.47
20.46
29.49
37.24
43.38
47.52
49.40
49.03
46.77
43.34
39.54
36.04
33.26
31.31
30.17
29.82
30.26
31.41
33.01
34.49
35.15
34.39
31.93
28.05
23.45
19.05
15.65
13.65
12.92
12.88
12.67
11.44
8.58
3.99
-1.92
-8.24
-13.89
-18.00
-20.24
-20.97
-21.16
-21.96
-24.28
-28.40
-33.80
-39.26
-43.14
-43.82
-40.04
-31.35
-18.26
-2.22
14.71
30.41
43.26
52.50
58.25
61.17
62.01
61.23
58.98
55.19
49.92
43.48
36.48
29.65
23.55
18.53
14.72
12.22
11.14
11.68
13.97
17.82
22.69
27.60
31.47
33.40
33.03
30.64
27.05
23.26
20.08
17.80
16.14
14.50
12.20
8.83
4.38
-0.83
-6.46
-12.34
-18.58
-25.54
-33.53
-42.75
-53.19
-64.55
-76.29
-87.59
-97.27
-103.91
-106.11
-102.94
-94.28
-80.98
-64.63
-47.13
-30.12
-14.72
-1.43
9.71
18.84
26.11
31.59
35.35
37.49
38.24
37.92
36.86
35.42
33.93
32.76
32.28
32.81
34.51
37.36
41.03
44.99
48.67
51.59
53.49
54.29
53.99
52.48
49.52
44.84
38.27
29.90
20.13
9.64
-0.76
-10.24
-17.99
-23.33
-25.75
-25.03
-21.30
-15.11
-7.28
1.07
8.85
15.15
19.56
22.36
24.58
27.76
33.49
42.81
55.81
71.60
88.72
105.58
120.93
133.96
144.13
150.94
153.92
152.73
147.44
138.72
127.70
115.72
103.93
93.03
83.22
74.34
66.23
58.94
52.80
48.23
45.47
44.20
43.49
42.02
38.53
32.33
23.57
13.21
2.61
-6.97
-14.81
-20.97
-26.07
-31.00
-36.53
-43.06
-50.46
-58.21
-65.56
-71.73
-76.18
-78.74
-79.73
-79.90
-80.32
-82.12
-86.14
-92.50
-100.37
-107.91
-112.71
-112.51
-106.02
-93.53
-76.86
-58.83
-42.25
-29.04
-19.83
-14.06
-10.67
-8.70
-7.80
-8.20
-10.38
-14.55
-20.42
-27.17
-33.72
-39.16
-43.00
-45.25
-46.22
-46.25
-45.49
-43.85
-41.26
-37.91
-34.38
-31.47
-29.91
-30.01
-31.54
-33.81
-36.04
-37.76
-39.02
-40.37
-42.53
-46.01
-50.78
-56.23
-61.44
-65.55
-68.15
-69.40
-70.02
-70.86
-72.70
-75.92
-80.51
-86.04
-91.60
-95.88
-97.26
-94.15
-85.57
-71.60
-53.55
-33.67
-14.38
2.52
16.32
27.30
36.16
43.34
48.71
51.61
51.37
47.74
41.19
32.78
23.83
15.58
8.94
4.43
2.22
2.19
3.96
6.97
10.46
13.68
15.89
16.58
15.51
12.79
8.79
4.08
-0.78
-5.40
-9.68
-13.83
-18.17
-22.97
-28.20
-33.46
-38.11
-41.50
-43.28
-43.57
-42.96
-42.34
-42.68
-44.72
-48.76
-54.48
-60.89
-66.40
-69.16
-67.54
-60.62
-48.62
-32.77
-14.93
2.96
19.44
33.68
45.41
54.65
61.44
65.69
67.30
66.24
62.66
57.00
49.95
42.31
34.88
28.26
22.84
18.78
16.13
14.89
15.04
16.39
18.49
20.66
22.08
22.10
20.52
17.57
13.87
10.04
6.41
2.90
-0.92
-5.60
-11.52
-18.64
-26.46
-34.17
-40.90
-46.03
-49.37
-51.22
-52.33
-53.67
-56.13
-60.32
-66.32
-73.50
-80.51
-85.52
-86.68
-82.75
-73.54
-60.01
-43.91
-27.20
-11.39
2.79
15.27
26.20
35.53
42.87
47.62
49.36
48.16
44.65
39.81
34.68
30.04
26.29
23.55
21.79
21.00
21.23
22.54
24.78
27.56
30.18
31.88
32.08
30.60
27.75
24.12
20.29
16.49
12.58
8.12
2.78
-3.40
-9.93
-16.04
-21.07
-24.78
-27.46
-29.69
-32.15
-35.18
-38.84
-43.04
-47.74
-53.00
-58.81
-64.76
-69.81
-72.46
-71.09
-64.72
-53.44
-38.42
-21.59
-4.89
10.31
23.46
34.61
43.99
51.57
56.98
59.75
59.57
56.68
51.83
46.06
40.34
35.35
31.32
28.22
25.99
24.67
24.43
25.36
27.23
29.33
30.60
29.99
26.91
21.55
14.82
8.01
2.19
-2.15
-5.27
-7.92
-10.95
-14.84
-19.56
-24.56
-29.13
-32.64
-34.78
-35.76
-36.14
-36.79
-38.57
-42.07
-47.32
-53.64
-59.71
-63.81
-64.33
-60.17
-51.07
-37.72
-21.54
-4.34
12.10
26.40
37.78
46.02
51.41
54.42
55.47
54.77
52.39
48.35
42.96
36.86
30.87
25.75
21.85
19.10
17.16
15.78
15.03
15.25
16.73
19.30
22.24
24.34
24.42
21.74
16.39
9.17
1.28
-6.15
-12.43
-17.38
-21.27
-24.48
-27.33
-29.97
-32.46
-34.87
-37.36
-40.16
-43.53
-47.68
-52.64
-58.20
-63.78
-68.35
-70.53
-68.87
-62.42
-51.05
-35.63
-17.77
0.71
18.23
33.75
46.66
56.61
63.28
66.50
66.34
63.24
57.93
51.27
44.00
36.69
29.78
23.73
19.03
16.16
15.42
16.75
19.67
23.24
26.26
27.59
26.47
22.87
17.47
11.45
6.04
1.93
-0.88
-3.04
-5.43
-8.69
-12.88
-17.57
-22.03
-25.66
-28.25
-30.00
-31.48
-33.39
-36.35
-40.70
-46.32
-52.50
-57.92
-60.91
-59.88
-53.89
-42.94
-28.13
-11.26
5.74
21.34
34.62
45.27
53.27
58.75
61.84
62.76
61.91
59.77
56.86
53.50
49.83
45.87
41.65
37.36
33.27
29.66
26.66
24.22
22.17
20.37
18.74
17.25
15.87
14.45
12.78
10.62
7.82
4.31
0.04
-5.11
-11.33
-18.69
-26.96
-35.56
-43.64
-50.49
-55.85
-60.02
-63.73
-67.79
-72.61
-77.94
-82.82
-85.75
-85.16
-79.95
-69.78
-55.37
-38.23
-20.29
-3.31
11.55
23.90
33.95
42.13
48.76
53.88
57.32
58.93
58.74
57.02
54.27
50.99
47.58
44.27
41.14
38.24
35.73
33.88
32.99
33.27
34.56
36.35
37.80
38.02
36.39
32.72
27.33
20.92
14.23
7.87
2.07
-3.19
-8.10
-12.75
-17.02
-20.69
-23.59
-25.85
-27.99
-30.80
-35.06
-41.18
-48.93
-57.35
-64.89
-69.72
-70.24
-65.57
-55.83
-42.23
-26.74
-11.44
2.03
12.93
21.43
28.20
33.89
38.66
42.08
43.47
42.35
38.88
33.87
28.56
24.11
21.27
20.20
20.59
21.99
23.97
26.27
28.72
31.07
32.93
33.81
33.29
31.18
27.69
23.31
18.68
14.26
10.21
6.35
2.31
-2.17
-7.06
-11.98
-16.40
-19.90
-22.44
-24.35
-26.25
-28.76
-32.26
-36.76
-42.00
-47.47
-52.44
-56.00
-57.07
-54.60
-47.88
-36.89
-22.51
-6.34
9.69
23.96
35.50
44.12
50.07
53.74
55.29
54.70
51.86
46.92
40.38
33.16
26.30
20.67
16.74
14.46
13.47
13.31
13.69
14.63
16.29
18.73
21.74
24.64
26.47
26.35
23.72
18.66
11.85
4.29
-2.98
-9.23
-14.15
-17.82
-20.48
-22.38
-23.72
-24.68
-25.55
-26.73
-28.71
-31.85
-36.24
-41.58
-47.33
-52.65
-56.63
-58.35
-56.95
-51.92
-43.21
-31.37
-17.50
-2.98
10.82
22.80
32.25
38.84
42.48
43.26
41.44
37.46
32.02
25.94
20.04
14.91
10.77
7.52
4.90
2.74
1.08
0.23
0.50
1.98
4.36
6.92
8.78
9.24
7.90
4.86
0.54
-4.46
-9.57
-14.40
-18.72
-22.50
-25.83
-28.79
-31.44
-33.78
-35.70
-37.16
-38.21
-39.05
-40.03
-41.63
-44.22
-48.01
-52.74
-57.67
-61.48
-62.62
-59.71
-52.08
-40.06
-24.95
-8.59
7.27
21.41
33.34
43.04
50.66
56.23
59.65
60.86
60.05
57.70
54.35
50.41
45.99
41.00
35.41
29.44
23.74
19.09
16.21
15.39
16.38
18.46
20.70
22.26
22.54
21.32
18.65
14.82
10.17
5.00
-0.51
-6.34
-12.62
-19.42
-26.62
-33.87
-40.59
-46.08
-49.86
-51.76
-52.04
-51.37
-50.59
-50.48
-51.51
-53.53
-55.77
-56.97
-55.76
-51.11
-42.65
-30.86
-16.78
-1.75
12.97
26.40
37.83
46.72
52.68
55.47
55.16
52.32
47.89
43.07
38.85
35.78
33.81
32.54
31.56
30.82
30.69
31.78
34.47
38.63
43.48
47.88
50.67
51.10
49.00
44.76
39.10
32.81
26.56
20.70
15.24
9.85
4.15
-2.22
-9.31
-16.83
-24.23
-30.93
-36.59
-41.24
-45.31
-49.53
-54.63
-61.07
-68.72
-76.74
-83.66
-87.75
-87.55
-82.37
-72.56
-59.42
-44.61
-29.62
-15.33
-1.90
10.84
22.98
34.17
43.59
50.31
53.72
53.87
51.46
47.67
43.67
40.36
38.16
37.01
36.62
36.65
36.90
37.39
38.21
39.47
41.06
42.68
43.85
44.05
42.84
39.92
35.30
29.23
22.22
14.90
7.90
1.69
-3.51
-7.75
-11.12
-13.75
-15.69
-17.07
-18.29
-20.07
-23.33
-28.90
-37.14
-47.64
-59.20
-69.98
-77.87
-80.94
-78.04
-69.07
-55.11
-38.06
-20.07
-2.95
12.28
25.38
36.53
45.95
53.58
59.07
62.02
62.19
59.69
54.96
48.67
41.59
34.44
27.81
22.03
17.25
13.42
10.51
8.63
8.01
8.84
11.01
14.01
16.82
18.21
17.17
13.25
6.74
-1.44
-10.09
-18.11
-24.81
-30.03
-34.00
-37.06
-39.53
-41.53
-43.06
-44.17
-45.00
-45.90
-47.33
-49.72
-53.31
-58.07
-63.49
-68.63
-72.19
-72.73
-69.12
-60.94
-48.69
-33.75
-17.93
-2.89
10.28
21.29
30.36
37.84
43.77
47.78
49.33
48.06
44.22
38.68
32.67
27.35
23.35
20.65
18.74
17.00
15.20
13.60
12.83
13.53
15.92
19.55
23.36
26.04
26.49
24.23
19.53
13.28
6.63
0.63
-4.13
-7.51
-9.69
-10.97
-11.55
-11.54
-11.09
-10.54
-10.40
-11.26
-13.53
-17.23
-22.07
-27.49
-32.88
-37.64
-41.09
-42.39
-40.64
-35.06
-25.44
-12.32
3.00
18.86
33.72
46.63
57.28
65.77
72.22
76.50
78.27
77.18
73.24
67.02
59.49
51.81
44.84
38.98
34.18
30.11
26.57
23.57
21.34
20.10
19.86
20.28
20.74
20.58
19.27
16.50
12.33
7.05
1.13
-4.86
-10.46
-15.40
-19.65
-23.45
-27.11
-30.95
-35.12
-39.58
-44.25
-48.99
-53.77
-58.68
-63.90
-69.65
-76.00
-82.72
-89.07
-93.85
-95.62
-93.19
-86.07
-74.82
-61.02
-46.86
-34.57
-25.84
-21.48
-21.26
-24.03
-27.97
-30.92
-30.82
-26.15
-16.36
-2.15
14.69
31.67
46.25
56.64
62.23
63.73
62.73
61.08
60.10
60.19
60.81
60.84
59.30
55.76
50.53
44.46
38.44
33.04
28.32
23.92
19.33
14.20
8.45
2.42
-3.35
-8.17
-11.47
-13.04
-13.14
-12.53
-12.40
-14.09
-18.75
-26.90
-38.18
-51.16
-63.50
-72.39
-75.32
-70.68
-58.31
-39.47
-16.55
7.67
30.65
50.52
66.16
77.09
83.19
84.55
81.42
74.37
64.35
52.61
40.58
29.51
20.31
13.44
9.00
6.95
7.21
9.67
14.03
19.64
25.52
30.47
33.34
33.29
29.96
23.56
14.79
4.71
-5.45
-14.55
-21.83
-27.13
-30.83
-33.62
-36.16
-38.72
-41.07
-42.75
-43.44
-43.28
-42.99
-43.61
-46.09
-50.79
-57.15
-63.81
-68.86
-70.46
-67.39
-59.45
-47.49
-33.05
-17.81
-2.98
10.94
24.04
36.62
48.61
59.43
67.97
73.11
74.14
71.15
64.98
57.05
48.82
41.46
35.63
31.44
28.64
26.78
25.42
24.24
23.10
21.99
21.02
20.29
19.87
19.71
19.72
19.77
19.72
19.36
18.33
16.15
12.35
6.68
-0.62
-8.80
-16.80
-23.61
-28.65
-31.99
-34.25
-36.41
-39.46
-44.11
-50.55
-58.29
-66.08
-72.15
-74.60
-72.05
-64.14
-51.77
-36.83
-21.47
-7.44
4.41
14.08
22.00
28.51
33.51
36.40
36.41
32.93
25.89
15.80
3.68
-9.13
-21.30
-31.66
-39.26
-43.34
-43.30
-38.67
-29.39
-15.97
0.12
16.58
30.69
40.02
43.23
40.46
33.19
23.69
14.30
6.76
2.05
0.38
1.44
4.56
8.72
12.58
14.67
13.67
8.78
-0.10
-12.32
-26.71
-41.83
-56.08
-67.87
-75.71
-78.53
-75.96
-68.62
-57.92
-45.64
-33.33
-21.83
-11.17
-0.90
9.52
20.30
31.27
41.80
50.89
57.31
59.73
57.21
49.60
37.94
24.32
11.34
1.31
-4.42
-5.56
-2.60
3.75
12.85
24.00
36.14
47.57
56.21
60.15
58.47
51.61
41.18
29.29
17.72
7.44
-1.38
-8.93
-15.25
-20.24
-23.80
-26.30
-28.78
-32.62
-38.96
-48.05
-59.06
-70.23
-79.49
-85.02
-85.58
-80.59
-70.19
-55.17
-37.00
-17.69
0.52
15.62
26.25
32.00
33.30
31.27
27.42
23.39
20.84
21.20
25.42
33.61
44.78
56.91
67.22
72.87
71.85
63.69
49.83
33.44
18.53
8.86
6.75
12.39
23.84
37.73
50.36
58.79
61.60
58.93
52.07
42.75
32.43
21.95
11.50
0.89
-10.07
-21.32
-32.42
-42.64
-51.22
-57.61
-61.79
-64.36
-66.40
-69.01
-72.69
-76.89
-79.85
-79.14
-72.61
-59.37
-40.51
-18.87
1.86
18.41
29.00
33.71
34.03
31.87
28.74
25.24
21.33
16.83
11.96
7.40
4.02
2.36
2.30
3.18
4.15
4.74
5.07
5.77
7.59
10.93
15.59
20.79
25.48
28.69
29.89
29.10
26.85
23.91
21.02
18.60
16.66
14.80
12.47
9.14
4.44
-1.86
-9.86
-19.56
-30.70
-42.68
-54.51
-64.99
-73.06
-77.97
-79.42
-77.43
-72.15
-63.81
-52.80
-39.73
-25.54
-11.35
1.92
13.74
24.08
33.11
40.92
47.16
51.16
52.12
49.63
44.01
36.32
28.09
20.83
15.54
12.59
11.77
12.65
14.76
17.71
21.10
24.38
26.93
28.20
27.95
26.33
23.78
20.69
17.18
13.02
7.82
1.33
-6.29
-14.45
-22.29
-28.98
-34.03
-37.42
-39.63
-41.60
-44.48
-49.44
-57.19
-67.70
-79.87
-91.58
-100.15
-103.05
-98.79
-87.45
-70.73
-51.31
-31.93
-14.56
0.09
12.33
22.98
32.66
41.40
48.70
53.85
56.38
56.31
54.13
50.53
46.24
41.86
37.85
34.67
32.76
32.48
33.91
36.78
40.39
43.83
46.25
47.15
46.52
44.79
42.57
40.33
38.11
35.45
31.59
25.81
17.90
8.40
-1.47
-10.23
-16.71
-20.51
-22.23
-23.18
-24.92
-28.71
-35.08
-43.64
-53.08
-61.49
-66.78
-67.27
-62.10
-51.52
-36.81
-19.78
-2.24
14.55
30.01
44.12
56.92
68.18
77.21
83.09
85.09
83.19
78.25
71.84
65.72
61.25
58.94
58.51
59.13
59.83
59.78
58.52
55.82
51.69
46.38
40.29
33.95
27.87
22.27
17.05
11.80
6.06
-0.47
-7.73
-15.41
-23.06
-30.29
-36.82
-42.50
-47.20
-50.88
-53.57
-55.54
-57.37
-59.85
-63.67
-68.92
-74.78
-79.57
-81.25
-78.19
-69.79
-56.78
-40.82
-23.89
-7.57
7.35
20.73
32.65
42.93
50.95
55.77
56.58
53.18
46.11
36.67
26.51
17.17
9.71
4.55
1.61
0.51
0.91
2.58
5.34
8.92
12.87
16.56
19.33
20.72
20.58
19.08
16.52
13.25
9.46
5.28
0.80
-3.87
-8.56
-13.17
-17.59
-21.82
-25.82
-29.53
-32.93
-36.09
-39.32
-43.03
-47.49
-52.47
-57.12
-60.09
-60.04
-56.19
-48.71
-38.60
-27.23
-15.73
-4.53
6.47
17.58
28.78
39.39
48.26
54.14
56.25
54.54
49.70
42.86
35.13
27.41
20.28
14.12
9.37
6.54
6.11
8.29
12.73
18.50
24.21
28.39
29.92
28.29
23.76
17.08
9.33
1.54
-5.56
-11.63
-16.72
-21.15
-25.30
-29.47
-33.80
-38.23
-42.67
-47.07
-51.57
-56.48
-62.06
-68.26
-74.45
-79.47
-81.82
-80.30
-74.42
-64.61
-52.03
-38.06
-23.83
-9.91
3.48
16.19
27.83
37.73
45.14
49.56
51.02
50.05
47.51
44.21
40.74
37.37
34.14
31.04
28.15
25.74
24.16
23.73
24.57
26.43
28.69
30.52
31.11
30.01
27.20
23.15
18.56
14.04
9.84
5.75
1.30
-3.94
-10.09
-16.87
-23.78
-30.49
-37.07
-44.04
-52.00
-61.36
-71.92
-82.86
-92.86
-100.51
-104.58
-104.28
-99.39
-90.22
-77.53
-62.33
-45.62
-28.25
-10.74
6.55
23.27
38.93
52.85
64.33
72.84
78.19
80.62
80.63
78.94
76.26
73.25
70.38
67.84
65.56
63.24
60.52
57.15
53.15
48.86
44.80
41.54
39.48
38.81
39.36
40.67
41.97
42.31
40.74
36.56
29.57
20.20
9.41
-1.54
-11.46
-19.53
-25.57
-29.95
-33.48
-37.17
-41.87
-48.15
-56.03
-64.92
-73.64
-80.52
-83.83
-82.16
-74.99
-62.82
-47.18
-30.09
-13.45
1.46
14.15
24.76
33.62
40.93
46.51
50.02
51.20
50.10
47.18
43.12
38.55
33.97
29.65
25.81
22.80
21.09
21.18
23.24
26.89
31.14
34.69
36.35
35.49
32.25
27.37
21.84
16.36
11.14
5.92
0.23
-6.15
-13.05
-19.90
-26.04
-31.07
-34.99
-38.18
-41.24
-44.66
-48.77
-53.62
-59.12
-65.01
-70.87
-76.06
-79.74
-81.03
-79.13
-73.59
-64.45
-52.18
-37.63
-21.80
-5.68
9.84
24.02
36.29
46.15
53.25
57.38
58.55
57.07
53.53
48.74
43.52
38.57
34.35
31.10
28.92
27.93
28.27
29.97
32.84
36.30
39.51
41.55
41.78
40.03
36.53
31.76
26.07
19.61
12.27
4.08
-4.69
-13.34
-21.01
-26.93
-30.81
-32.91
-33.88
-34.51
-35.44
-37.04
-39.52
-43.01
-47.71
-53.75
-60.99
-68.70
-75.56
-79.85
-80.02
-75.25
-65.78
-52.78
-37.83
-22.36
-7.21
7.34
21.15
33.87
44.73
52.78
57.24
57.99
55.67
51.49
46.88
43.00
40.49
39.39
39.27
39.51
39.55
39.21
38.63
38.23
38.47
39.51
41.12
42.64
43.27
42.30
39.44
34.82
29.00
22.69
16.55
10.94
5.90
1.16
-3.57
-8.44
-13.26
-17.59
-20.92
-22.90
-23.69
-23.89
-24.51
-26.69
-31.30
-38.65
-48.16
-58.34
-66.99
-71.71
-70.56
-62.77
-48.96
-30.98
-11.35
7.54
24.03
37.38
47.60
55.04
60.03
62.68
63.05
61.23
57.57
52.66
47.20
41.85
37.13
33.32
30.50
28.69
27.84
27.87
28.62
29.84
31.18
32.23
32.66
32.24
30.86
28.51
25.21
21.02
15.98
10.16
3.63
-3.54
-11.17
-18.97
-26.53
-33.26
-38.58
-42.08
-43.75
-44.04
-43.82
-44.16
-46.06
-50.20
-56.77
-65.37
-74.94
-83.84
-90.04
-91.64
-87.40
-77.22
-62.27
-44.57
-26.45
-9.67
4.79
16.77
26.47
34.12
39.65
42.92
43.94
43.05
40.98
38.57
36.51
35.10
34.26
33.73
33.31
33.04
33.23
34.25
36.34
39.39
42.89
46.13
48.36
49.03
47.92
45.11
40.89
35.61
29.67
23.38
16.96
10.53
4.12
-2.20
-8.27
-13.81
-18.52
-22.19
-24.86
-26.90
-28.87
-31.41
-35.01
-39.95
-46.19
-53.37
-60.75
-67.25
-71.51
-72.23
-68.46
-59.91
-47.12
-31.35
-14.24
2.56
17.69
30.26
39.81
46.20
49.51
49.99
48.13
44.67
40.50
36.55
33.49
31.51
30.29
29.21
27.65
25.37
22.62
20.05
18.37
17.99
18.83
20.30
21.54
21.67
20.09
16.64
11.62
5.79
0.07
-4.70
-8.05
-10.12
-11.54
-13.23
-16.07
-20.54
-26.51
-33.37
-40.18
-46.09
-50.58
-53.73
-56.18
-58.94
-63.02
-68.86
-76.05
-83.05
-87.65
-87.56
-81.31
-68.84
-51.64
-32.22
-13.29
3.09
15.97
25.44
32.13
36.73
39.66
41.09
41.10
39.95
37.96
35.45
32.51
29.08
25.05
20.56
16.09
12.36
10.08
9.60
10.79
13.02
15.32
16.74
16.52
14.35
10.41
5.33
-0.03
-4.86
-8.67
-11.44
-13.62
-15.87
-18.77
-22.56
-27.02
-31.68
-36.00
-39.68
-42.77
-45.56
-48.49
-51.89
-55.93
-60.58
-65.68
-70.82
-75.32
-78.17
-78.07
-73.87
-64.93
-51.53
-34.94
-17.06
0.18
15.33
27.83
37.87
46.01
52.65
57.80
61.11
62.21
61.09
58.30
54.83
51.70
49.50
48.18
47.19
45.89
44.01
41.87
40.24
39.93
41.37
44.24
47.60
50.25
51.09
49.57
45.83
40.56
34.76
29.37
24.94
21.56
18.91
16.44
13.58
9.95
5.39
0.07
-5.63
-11.20
-16.15
-20.23
-23.56
-26.68
-30.39
-35.42
-41.99
-49.49
-56.46
-60.96
-61.23
-56.44
-47.07
-34.85
-22.12
-10.96
-2.50
3.25
7.13
10.16
12.90
15.31
16.89
17.13
15.87
13.36
10.15
6.77
3.57
0.72
-1.56
-2.95
-2.97
-1.22
2.45
7.67
13.59
19.06
22.97
24.65
24.03
21.60
18.22
14.76
11.82
9.59
7.83
6.02
3.56
-0.00
-4.84
-10.70
-17.07
-23.28
-28.68
-32.89
-35.88
-38.02
-40.00
-42.65
-46.68
-52.42
-59.58
-67.05
-73.21
-76.21
-74.63
-67.90
-56.54
-41.91
-25.79
-9.77
5.04
18.08
29.19
38.26
45.15
49.71
51.92
52.03
50.50
47.91
44.67
40.93
36.62
31.71
26.40
21.25
17.03
14.46
13.91
15.16
17.50
19.93
21.50
21.54
19.84
16.54
12.06
6.88
1.51
-3.65
-8.26
-12.14
-15.28
-17.79
-19.92
-21.92
-23.98
-26.19
-28.49
-30.83
-33.26
-36.01
-39.50
-44.30
-50.91
-59.49
-69.65
-80.29
-89.64
-95.64
-96.46
-91.06
-79.55
-63.10
-43.67
-23.42
-4.21
12.71
26.76
37.88
46.28
52.20
55.83
57.30
56.82
54.84
52.09
49.42
47.59
46.95
47.37
48.34
49.23
49.63
49.52
49.21
49.09
49.37
49.87
50.12
49.59
47.89
45.05
41.43
37.54
33.80
30.32
26.91
23.22
18.96
14.06
8.80
3.62
-1.00
-4.81
-7.84
-10.47
-13.35
-17.20
-22.64
-30.03
-39.34
-50.03
-61.06
-70.92
-77.86
-80.29
-77.18
-68.47
-55.12
-38.94
-22.02
-6.21
7.28
18.00
26.08
31.90
35.85
38.17
38.98
38.45
36.82
34.48
31.90
29.48
27.50
26.02
24.92
23.95
22.95
21.87
20.85
20.19
20.10
20.60
21.38
21.86
21.36
19.40
15.88
11.14
5.82
0.61
-4.04
-7.98
-11.38
-14.52
-17.56
-20.49
-23.17
-25.49
-27.51
-29.45
-31.63
-34.37
-37.89
-42.39
-48.04
-55.00
-63.15
-71.81
-79.57
-84.51
-84.72
-78.95
-67.19
-50.64
-31.39
-11.62
6.88
23.06
36.50
47.14
55.02
60.16
62.61
62.65
60.78
57.75
54.35
51.19
48.58
46.40
44.29
41.89
39.09
36.24
34.02
33.15
33.97
36.14
38.67
40.24
39.85
37.11
32.46
26.86
21.31
16.48
12.51
9.15
6.02
2.87
-0.38
-3.73
-7.16
-10.75
-14.68
-19.15
-24.39
-30.62
-38.10
-46.98
-57.26
-68.64
-80.46
-91.67
-100.89
-106.65
-107.65
-103.05
-92.75
-77.50
-58.68
-38.03
-17.24
2.29
19.59
34.08
45.48
53.80
59.28
62.34
63.43
63.04
61.52
59.17
56.25
52.99
49.66
46.50
43.70
41.42
39.75
38.65
37.93
37.30
36.42
35.13
33.42
31.51
29.59
27.64
25.45
22.60
18.86
14.24
8.99
3.38
-2.52
-8.88
-15.95
-23.69
-31.55
-38.54
-43.57
-45.92
-45.58
-43.38
-40.70
-39.10
-39.89
-43.83
-50.87
-60.04
-69.49
-76.80
-79.53
-76.02
-65.89
-50.26
-31.36
-11.79
6.25
21.51
33.72
43.17
50.29
55.30
58.17
58.87
57.56
54.74
51.20
47.75
45.02
43.20
42.10
41.29
40.37
39.22
38.02
37.16
36.92
37.14
37.11
35.68
31.78
24.87
15.34
4.39
-6.31
-15.19
-21.31
-24.47
-25.15
-24.25
-22.97
-22.76
-25.27
-32.07
-44.17
-61.31
-81.70
-102.21
-119.24
-129.98
-133.24
-129.74
-121.43
-110.39
-97.92
-84.29
-69.18
-52.42
-34.56
-16.78
-0.31
14.16
26.84
38.50
49.85
61.04
71.42
79.83
85.15
86.80
84.92
80.31
74.08
67.34
60.96
55.42
50.79
46.92
43.54
40.49
37.80
35.67
34.32
33.85
34.08
34.60
34.92
34.79
34.28
33.83
34.02
35.30
37.80
41.33
45.57
50.16
54.84
59.32
63.33
66.48
68.38
68.73
67.40
64.35
59.59
53.07
44.72
34.65
23.21
11.11
-0.75
-11.48
-20.44
-27.20
-31.50
-33.13
-31.87
-27.64
-20.76
-12.03
-2.80
5.39
11.23
14.01
13.74
11.00
6.59
1.21
-4.64
-10.54
-16.00
-20.38
-23.02
-23.44
-21.67
-18.19
-13.90
-9.70
-6.23
-3.76
-2.10
-0.92
0.14
1.17
2.04
2.33
1.59
-0.62
-4.60
-10.40
-17.78
-26.28
-35.20
-43.69
-50.98
-56.50
-60.11
-62.10
-63.15
-64.04
-65.42
-67.65
-70.73
-74.52
-78.80
-83.49
-88.57
-93.89
-99.02
-103.08
-104.87
-103.07
-96.66
-85.13
-68.67
-48.00
-24.27
1.06
26.27
49.30
68.01
80.53
85.86
84.22
77.12
66.76
55.39
44.58
35.00
26.64
19.29
12.90
7.69
3.94
1.72
0.81
0.80
1.27
1.93
2.62
3.12
3.06
2.01
-0.37
-3.96
-8.16
-12.02
-14.68
-15.78
-15.68
-15.25
-15.52
-17.18
-20.39
-24.72
-29.54
-34.25
-38.53
-42.41
-46.14
-50.05
-54.39
-59.13
-63.83
-67.57
-69.05
-66.85
-59.92
-47.87
-31.27
-11.46
9.75
30.53
49.35
65.08
76.94
84.35
86.92
84.51
77.49
66.85
54.26
41.65
30.83
22.95
18.26
16.15
15.48
15.15
14.54
13.68
13.04
13.21
14.42
16.30
17.94
18.24
16.31
11.89
5.44
-1.97
-9.04
-14.79
-18.88
-21.75
-24.32
-27.57
-32.03
-37.54
-43.40
-48.69
-52.76
-55.54
-57.51
-59.55
-62.51
-66.96
-72.86
-79.45
-85.36
-88.79
-87.96
-81.54
-69.08
-51.10
-29.04
-4.80
19.62
42.47
62.39
78.34
89.49
95.21
95.24
89.85
80.05
67.52
54.31
42.43
33.34
27.64
25.06
24.70
25.46
26.49
27.39
28.21
29.16
30.34
31.44
31.88
31.01
28.44
24.24
18.91
13.08
7.27
1.70
-3.64
-8.87
-14.08
-19.30
-24.49
-29.60
-34.57
-39.22
-43.38
-46.90
-49.86
-52.66
-55.94
-60.23
-65.67
-71.61
-76.55
-78.44
-75.27
-65.73
-49.73
-28.54
-4.47
19.72
41.52
59.08
71.41
78.15
79.47
75.78
67.93
57.12
44.94
33.10
22.93
15.14
9.64
5.80
2.92
0.63
-0.91
-1.18
0.31
3.53
7.78
11.85
14.35
14.31
11.46
6.26
-0.31
-7.17
-13.39
-18.47
-22.26
-24.92
-26.78
-28.23
-29.65
-31.36
-33.47
-35.96
-38.67
-41.50
-44.55
-48.18
-52.92
-59.10
-66.54
-74.22
-80.40
-82.86
-79.61
-69.52
-52.76
-30.81
-6.07
18.75
41.28
59.84
73.58
82.25
86.04
85.43
81.12
74.14
65.69
57.03
49.17
42.72
37.79
34.17
31.63
30.00
29.26
29.35
29.99
30.66
30.64
29.31
26.30
21.65
15.68
8.89
1.76
-5.29
-11.98
-18.11
-23.55
-28.23
-32.13
-35.31
-37.84
-39.92
-41.84
-44.04
-46.96
-50.98
-56.27
-62.78
-70.17
-77.87
-85.04
-90.63
-93.40
-92.05
-85.55
-73.42
-56.00
-34.52
-10.88
12.78
34.50
52.83
66.92
76.38
81.16
81.48
77.82
71.00
62.19
52.63
43.44
35.29
28.39
22.66
17.98
14.42
12.23
11.62
12.53
14.56
16.96
18.86
19.55
18.55
15.69
11.09
5.11
-1.68
-8.55
-14.75
-19.72
-23.17
-25.29
-26.62
-27.81
-29.50
-32.08
-35.67
-40.21
-45.60
-51.85
-59.08
-67.36
-76.49
-85.73
-93.74
-98.74
-98.92
-92.84
-79.83
-60.16
-34.85
-5.57
25.61
56.47
84.76
108.44
125.87
136.12
139.07
135.42
126.57
114.31
100.54
86.96
74.89
65.06
57.64
52.37
48.72
46.08
43.99
42.10
40.14
37.98
35.53
32.76
29.65
26.14
22.02
16.99
10.72
3.06
-5.77
-15.24
-24.69
-33.53
-41.57
-49.01
-56.24
-63.57
-71.14
-78.76
-86.21
-93.38
-100.12
-106.03
-110.05
-110.45
-105.31
-93.15
-73.64
-47.66
-16.87
17.03
52.69
89.05
124.81
157.95
185.86
206.02
216.97
218.91
213.62
203.73
191.73
179.36
167.45
156.29
145.95
136.60
128.49
121.93
116.99
113.44
110.77
108.17
104.69
99.43
91.80
81.70
69.59
56.42
43.32
31.35
21.11
12.70
5.71
-0.63
-7.16
-14.55
-23.21
-33.21
-44.36
-56.30
-68.63
-80.97
-93.17
-105.29
-117.73
-130.92
-144.98
-159.21
-171.85
-180.25
-181.53
-173.53
-155.64
-129.12
-96.71
-61.97
-28.35
1.38
25.32
42.32
51.81
53.75
48.63
37.61
22.52
5.52
-11.23
-25.97
-37.65
-45.98
-51.24
-54.06
-55.07
-54.70
-53.22
-50.78
-47.70
-44.55
-42.15
-41.30
-42.52
-45.81
-50.60
-56.04
-61.30
-65.91
-69.91
-73.67
-77.64
-82.06
-86.81
-91.57
-96.10
-100.39
-104.76
-109.63
-115.29
-121.86
-129.27
-137.31
-145.68
-153.79
-160.48
-164.01
-162.17
-152.72
-134.02
-105.59
-68.48
-25.17
20.73
65.22
104.58
135.91
157.60
169.25
171.60
166.13
154.80
139.85
123.47
107.59
93.57
82.04
72.96
65.92
60.49
56.47
53.86
52.63
52.47
52.77
52.68
51.46
48.70
44.41
38.96
32.82
26.33
19.62
12.64
5.25
-2.60
-10.78
-18.97
-26.74
-33.66
-39.47
-44.19
-48.13
-51.81
-55.89
-60.97
-67.23
-74.21
-80.50
-83.97
-82.22
-73.42
-57.00
-33.99
-6.69
22.02
49.50
73.79
93.76
108.68
118.04
121.36
118.56
110.15
97.50
82.57
67.49
54.02
43.17
35.19
29.78
26.46
24.85
24.75
25.99
28.30
31.10
33.53
34.64
33.68
30.35
24.88
17.88
10.14
2.37
-4.99
-11.77
-18.12
-24.37
-30.91
-38.06
-45.89
-54.16
-62.33
-69.81
-76.13
-81.26
-85.64
-90.10
-95.51
-102.39
-110.49
-118.62
-124.68
-126.06
-120.39
-106.27
-83.96
-55.39
-23.81
7.20
34.65
56.72
72.73
82.77
87.19
86.29
80.42
70.22
56.92
42.26
28.09
16.00
6.89
0.93
-2.21
-3.13
-2.39
-0.50
2.03
4.60
6.46
6.91
5.51
2.27
-2.27
-7.31
-12.03
-15.98
-19.23
-22.30
-25.86
-30.37
-35.85
-41.81
-47.48
-52.15
-55.52
-57.79
-59.59
-61.75
-64.97
-69.75
-76.19
-83.90
-91.78
-97.96
-99.97
-95.34
-82.43
-61.18
-33.29
-1.77
29.99
59.12
83.68
102.62
115.32
121.32
120.40
112.88
99.90
83.48
66.11
50.11
37.18
28.01
22.51
19.97
19.57
20.64
22.73
25.49
28.48
31.09
32.50
32.03
29.40
24.91
19.32
13.55
8.19
3.30
-1.55
-6.95
-13.18
-20.08
-27.03
-33.20
-38.03
-41.35
-43.56
-45.37
-47.70
-51.34
-56.85
-64.39
-73.54
-83.14
-91.28
-95.54
-93.42
-83.11
-64.09
-37.45
-5.77
27.50
58.90
85.64
106.03
119.41
125.78
125.42
118.75
106.44
89.62
70.04
49.90
31.43
16.35
5.53
-1.10
-4.22
-4.69
-3.30
-0.67
2.62
5.82
8.00
8.28
6.09
1.46
-4.97
-12.23
-19.38
-25.84
-31.48
-36.57
-41.41
-46.14
-50.64
-54.61
-57.78
-60.07
-61.69
-63.15
-65.07
-68.08
-72.66
-78.93
-86.49
-94.16
-100.10
-101.97
-97.57
-85.52
-65.77
-39.79
-10.13
20.30
48.95
74.02
94.40
109.41
118.43
120.96
116.82
106.60
91.82
74.76
57.84
42.99
31.21
22.56
16.51
12.47
10.18
9.76
11.34
14.77
19.26
23.56
26.30
26.50
23.84
18.77
12.19
5.03
-2.03
-8.76
-15.27
-21.83
-28.58
-35.42
-42.01
-47.95
-52.96
-57.05
-60.50
-63.78
-67.48
-72.13
-78.09
-85.33
-93.14
-99.99
-103.60
-101.49
-91.64
-73.39
-47.72
-17.10
15.18
45.85
72.35
93.15
107.66
116.00
118.70
116.49
110.19
100.64
88.77
75.53
61.96
49.10
37.90
29.08
23.08
19.95
19.52
21.36
24.74
28.63
31.73
32.76
30.87
26.03
19.13
11.63
5.00
0.05
-3.36
-6.15
-9.45
-14.12
-20.27
-27.38
-34.62
-41.24
-46.86
-51.48
-55.47
-59.27
-63.44
-68.54
-75.05
-83.04
-91.81
-99.68
-104.08
-102.28
-92.24
-73.52
-47.48
-16.93
14.77
44.66
70.64
91.52
106.67
115.70
118.42
115.00
106.22
93.48
78.60
63.40
49.34
37.33
27.85
20.99
16.74
14.97
15.43
17.64
20.80
23.93
25.96
26.07
23.78
19.11
12.49
4.57
-3.98
-12.66
-21.24
-29.71
-38.22
-46.89
-55.75
-64.65
-73.39
-81.73
-89.53
-96.78
-103.60
-110.29
-117.29
-125.24
-134.80
-146.36
-159.57
-172.97
-184.03
-189.47
-186.18
-171.95
-146.23
-110.22
-66.51
-18.53
30.16
76.26
117.05
150.37
174.81
189.67
195.15
192.31
182.89
169.08
153.12
137.05
122.44
110.41
101.62
96.35
94.54
95.77
99.23
103.78
108.11
110.86
110.92
107.57
100.64
90.48
77.81
63.56
48.66
33.74
19.12
4.74
-9.64
-24.30
-39.23
-54.03
-67.89
-79.82
-88.98
-94.98
-98.22
-99.85
-101.60
-105.32
-112.40
-123.10
-136.04
-148.24
-155.48
-153.37
-138.66
-110.23
-69.64
-20.83
30.75
79.31
119.87
149.02
165.21
168.71
161.34
145.90
125.59
103.47
81.99
62.91
47.27
35.59
27.94
23.97
23.05
24.27
26.74
29.64
32.44
34.67
35.81
35.06
31.40
23.98
12.50
-2.35
-18.96
-35.14
-48.94
-59.22
-66.10
-70.73
-74.75
-79.53
-85.63
-92.74
-99.92
-106.19
-110.95
-114.16
-116.34
-118.31
-120.92
-124.73
-129.66
-134.70
-137.84
-136.28
-127.10
-108.03
-78.33
-39.13
6.64
54.96
101.48
142.27
174.20
195.09
203.81
200.40
186.20
163.90
137.12
109.82
85.39
66.06
52.62
44.71
41.31
41.36
43.94
48.35
53.78
59.11
62.83
63.28
58.97
49.15
34.13
15.32
-5.15
-24.99
-42.37
-56.32
-66.76
-74.27
-79.65
-83.63
-86.66
-89.03
-90.88
-92.32
-93.35
-93.89
-94.15
-95.01
-98.36
-106.78
-122.46
-145.74
-174.00
-201.67
-221.67
-227.74
-216.42
-187.89
-145.13
-92.49
-34.43
24.83
80.82
128.62
163.40
181.78
183.30
170.96
150.23
127.25
106.85
91.46
81.27
75.17
71.94
70.86
71.71
74.43
78.67
83.61
88.10
90.92
91.07
88.06
81.89
72.98
61.95
49.48
36.16
22.48
8.90
-4.19
-16.50
-27.88
-38.41
-48.29
-57.68
-66.62
-75.02
-82.67
-89.49
-95.68
-101.76
-108.63
-117.32
-128.60
-142.41
-157.32
-170.41
-177.69
-175.10
-159.78
-130.85
-89.59
-38.92
17.29
74.87
129.58
177.34
214.50
238.43
248.18
244.74
230.80
209.96
185.80
161.21
138.27
118.29
102.04
89.76
81.25
75.83
72.55
70.45
68.65
66.49
63.45
59.09
53.10
45.27
35.65
24.52
12.37
-0.15
-12.38
-23.72
-33.80
-42.53
-50.20
-57.30
-64.40
-71.88
-79.75
-87.62
-94.99
-101.44
-106.98
-112.10
-117.73
-124.96
-134.61
-146.80
-160.57
-173.64
-182.65
-183.67
-173.24
-149.31
-112.09
-64.19
-10.14
44.62
94.84
136.35
166.42
183.83
188.66
182.04
166.04
143.49
117.71
92.05
69.33
51.41
38.96
31.63
28.39
27.98
29.25
31.34
33.68
35.83
37.36
37.73
36.37
32.80
26.73
18.29
7.99
-3.30
-14.64
-25.22
-34.60
-42.74
-49.94
-56.62
-63.14
-69.64
-75.98
-81.86
-86.99
-91.30
-95.07
-98.96
-103.93
-110.96
-120.71
-132.97
-146.33
-158.05
-164.48
-161.86
-147.30
-119.62
-79.77
-30.70
23.17
76.79
125.33
164.86
192.76
207.98
210.93
203.18
187.15
165.61
141.43
117.25
95.28
77.06
63.42
54.35
49.21
46.98
46.55
46.97
47.52
47.67
47.02
45.14
41.65
36.20
28.69
19.25
8.31
-3.51
-15.51
-27.12
-38.05
-48.27
-57.92
-67.18
-76.10
-84.56
-92.35
-99.27
-105.31
-110.69
-115.91
-121.70
-128.92
-138.26
-149.87
-162.82
-174.92
-182.79
-182.65
-171.27
-146.95
-109.99
-62.58
-8.37
48.25
102.65
150.49
188.20
213.32
224.95
223.83
212.11
192.83
169.29
144.49
120.83
100.09
83.37
71.11
63.17
58.87
57.23
57.20
57.83
58.44
58.53
57.75
55.74
52.10
46.40
38.37
28.10
16.12
3.40
-8.95
-20.01
-29.43
-37.51
-45.04
-52.82
-61.22
-70.06
-78.60
-86.09
-92.15
-97.00
-101.45
-106.66
-113.75
-123.46
-135.73
-149.34
-161.84
-169.75
-169.22
-156.92
-131.04
-91.98
-42.49
12.75
68.14
118.26
158.85
187.38
203.09
206.70
199.85
184.70
163.62
139.13
113.81
90.01
69.61
53.68
42.35
35.05
30.81
28.64
27.79
27.69
27.85
27.74
26.75
24.18
19.44
12.25
2.80
-8.25
-19.87
-31.00
-40.86
-49.19
-56.26
-62.66
-68.98
-75.60
-82.52
-89.39
-95.71
-101.07
-105.35
-108.89
-112.51
-117.35
-124.49
-134.44
-146.56
-158.85
-168.08
-170.40
-162.33
-141.62
-107.90
-62.92
-10.26
45.30
98.59
144.89
180.58
203.57
213.37
210.97
198.42
178.50
154.31
128.86
104.79
84.08
67.86
56.34
48.99
44.88
42.95
42.28
42.17
42.11
41.67
40.45
37.98
33.83
27.68
19.45
9.44
-1.72
-13.20
-24.15
-34.04
-42.77
-50.67
-58.30
-66.12
-74.31
-82.63
-90.58
-97.65
-103.55
-108.45
-113.00
-118.24
-125.33
-135.11
-147.55
-161.26
-173.38
-180.03
-177.16
-161.71
-132.56
-90.85
-39.81
15.93
71.30
121.55
162.89
192.82
210.26
215.43
209.69
195.24
174.73
150.96
126.62
104.01
84.81
69.94
59.56
53.17
49.92
48.89
49.32
50.55
52.00
53.01
52.78
50.52
45.62
37.88
27.70
15.98
3.93
-7.35
-17.09
-25.18
-32.02
-38.39
-45.03
-52.32
-60.11
-67.80
-74.58
-79.76
-83.14
-85.08
-86.58
-88.94
-93.45
-100.87
-110.90
-121.89
-130.82
-133.86
-127.19
-108.19
-76.31
-33.47
16.23
67.47
114.81
153.84
181.70
197.23
200.73
193.53
177.71
155.83
130.72
105.21
81.76
62.03
46.73
35.62
27.93
22.74
19.37
17.44
16.74
16.87
17.23
17.03
15.53
12.29
7.31
0.99
-6.08
-13.28
-20.11
-26.23
-31.50
-35.99
-39.99
-43.97
-48.39
-53.55
-59.39
-65.47
-71.18
-75.89
-79.38
-81.88
-84.19
-87.36
-92.42
-99.90
-109.48
-119.73
-128.16
-131.68
-127.27
-112.89
-88.10
-54.38
-14.83
26.42
65.12
97.64
121.47
135.37
139.31
134.25
121.95
104.70
85.04
65.38
47.66
33.14
22.30
14.95
10.50
8.22
7.42
7.58
8.35
9.41
10.47
11.08
10.75
8.98
5.46
0.23
-6.28
-13.29
-19.97
-25.74
-30.49
-34.54
-38.53
-43.01
-48.25
-54.07
-60.00
-65.52
-70.29
-74.31
-77.85
-81.48
-85.92
-91.92
-99.99
-109.98
-120.69
-129.73
-133.89
-129.87
-115.40
-89.99
-55.27
-14.53
28.09
68.54
103.52
130.75
148.88
157.37
156.48
147.30
131.74
112.39
92.09
73.41
58.15
47.13
40.20
36.57
35.18
35.03
35.39
35.78
35.92
35.52
34.25
31.69
27.45
21.34
13.53
4.46
-5.16
-14.62
-23.48
-31.65
-39.38
-47.12
-55.20
-63.68
-72.28
-80.49
-87.78
-93.84
-98.76
-103.06
-107.60
-113.46
-121.57
-132.27
-144.78
-156.95
-165.32
-165.84
-154.92
-130.61
-93.35
-45.99
6.77
59.57
107.45
146.63
174.86
191.28
196.29
191.17
177.91
158.94
136.94
114.45
93.63
75.97
62.14
52.14
45.48
41.49
39.54
39.09
39.67
40.74
41.61
41.49
39.65
35.61
29.32
21.25
12.21
3.14
-5.25
-12.59
-19.02
-24.96
-30.95
-37.39
-44.36
-51.60
-58.67
-65.09
-70.55
-75.14
-79.32
-83.93
-89.93
-98.02
-108.22
-119.47
-129.51
-135.20
-133.20
-120.86
-97.08
-62.70
-20.42
25.89
71.96
114.01
149.09
175.28
191.52
197.52
193.75
181.50
162.83
140.38
116.89
94.81
75.77
60.54
49.07
40.81
35.06
31.12
28.46
26.58
24.97
23.05
20.19
15.86
9.80
2.08
-6.81
-16.15
-25.19
-33.38
-40.55
-46.87
-52.70
-58.39
-64.14
-69.92
-75.53
-80.71
-85.25
-89.09
-92.39
-95.58
-99.34
-104.46
-111.47
-120.26
-129.66
-137.38
-140.42
-135.69
-121.04
-95.85
-61.42
-20.67
22.48
63.91
100.05
128.19
146.75
155.17
153.88
144.22
128.29
108.73
88.28
69.36
53.61
41.73
33.50
28.11
24.55
22.00
19.99
18.34
17.04
15.93
14.65
12.61
9.23
4.14
-2.63
-10.58
-19.02
-27.25
-34.90
-41.95
-48.72
-55.60
-62.85
-70.40
-77.94
-85.00
-91.17
-96.30
-100.62
-104.81
-109.87
-116.85
-126.41
-138.35
-151.14
-161.93
-167.01
-162.63
-146.08
-116.47
-75.10
-25.22
28.67
81.69
129.38
168.22
195.94
211.49
215.05
207.86
192.05
170.32
145.62
120.71
97.85
78.58
63.64
53.05
46.31
42.63
41.16
41.07
41.62
42.14
41.99
40.51
37.12
31.37
23.18
12.91
1.37
-10.46
-21.68
-31.85
-41.02
-49.62
-58.14
-66.82
-75.53
-83.83
-91.23
-97.50
-102.81
-107.76
-113.25
-120.32
-129.76
-141.76
-155.33
-168.10
-176.53
-176.60
-164.93
-139.80
-101.66
-53.04
1.98
58.66
112.29
158.70
194.67
218.13
228.40
226.21
213.66
193.65
169.47
144.15
120.21
99.39
82.70
70.41
62.24
57.45
55.06
54.07
53.61
53.01
51.80
49.64
46.16
40.98
33.76
24.46
13.46
1.62
-9.98
-20.35
-28.98
-35.99
-42.03
-47.91
-54.22
-61.09
-68.17
-74.96
-81.01
-86.26
-91.13
-96.39
-103.03
-111.90
-123.38
-136.85
-150.34
-160.46
-162.95
-153.79
-130.46
-93.05
-44.50
10.00
64.29
112.65
150.77
176.10
187.78
186.25
173.01
150.48
121.82
90.64
60.41
33.94
12.90
-2.19
-11.80
-16.87
-18.36
-17.07
-13.58
-8.50
-2.65
2.89
6.95
8.52
7.08
2.72
-3.95
-11.96
-20.31
-28.23
-35.30
-41.50
-47.11
-52.53
-58.09
-63.86
-69.54
-74.59
-78.42
-80.68
-81.57
-81.86
-82.83
-85.85
-91.97
-101.34
-112.77
-123.56
-129.74
-127.05
-112.14
-83.79
-43.64
4.14
53.93
100.23
138.86
167.51
185.51
193.14
191.19
180.78
163.58
141.94
118.71
96.70
78.02
63.67
53.57
46.94
42.82
40.48
39.53
39.64
40.46
41.35
41.48
39.99
36.20
29.84
21.09
10.54
-0.99
-12.68
-23.86
-34.26
-43.95
-53.24
-62.46
-71.74
-80.94
-89.65
-97.47
-104.16
-109.87
-115.21
-121.17
-128.88
-139.18
-152.05
-166.05
-178.17
-184.31
-180.29
-163.01
-131.46
-87.02
-33.17
25.27
83.08
135.33
178.00
208.26
224.82
227.92
219.32
201.84
178.86
153.71
129.23
107.51
89.71
76.18
66.56
60.13
56.11
53.91
53.17
53.53
54.45
55.07
54.31
51.08
44.75
35.34
23.60
10.73
-1.93
-13.36
-23.06
-31.12
-38.08
-44.68
-51.52
-58.88
-66.60
-74.20
-81.16
-87.16
-92.41
-97.66
-104.06
-112.76
-124.38
-138.32
-152.39
-162.88
-165.22
-155.19
-130.27
-90.74
-39.94
16.36
71.43
119.17
155.43
178.39
188.32
186.82
176.04
158.37
136.27
112.32
89.08
68.73
52.66
41.19
33.65
28.85
25.65
23.37
21.82
21.12
21.27
21.88
22.15
21.09
17.88
12.17
4.22
-5.13
-14.73
-23.55
-31.00
-37.12
-42.52
-48.07
-54.44
-61.81
-69.73
-77.35
-83.80
-88.66
-92.22
-95.48
-99.83
-106.55
-116.16
-127.98
-139.81
-148.06
-148.49
-137.33
-112.49
-74.58
-27.05
24.58
74.03
115.89
146.58
164.74
170.80
166.28
153.17
133.72
110.36
85.70
62.34
42.40
27.17
16.84
10.73
7.54
6.00
5.08
4.20
3.14
1.76
-0.10
-2.76
-6.56
-11.76
-18.38
-26.13
-34.56
-43.11
-51.39
-59.19
-66.55
-73.60
-80.46
-87.13
-93.53
-99.46
-104.71
-109.25
-113.27
-117.33
-122.34
-129.28
-138.67
-149.93
-160.95
-168.21
-167.59
-155.56
-130.25
-92.06
-43.57
11.03
66.77
118.60
162.08
193.82
211.96
216.40
208.77
192.02
169.69
145.22
121.34
99.94
82.09
68.30
58.59
52.59
49.71
49.08
49.69
50.43
50.22
48.17
43.72
36.76
27.59
16.83
5.15
-6.87
-18.92
-30.91
-42.86
-54.74
-66.31
-77.16
-86.82
-94.99
-101.72
-107.40
-112.66
-118.24
-124.90
-133.30
-143.83
-156.20
-169.01
-179.55
-184.15
-179.18
-162.21
-132.85
-92.67
-44.37
9.29
65.99
123.62
179.54
230.04
270.65
297.30
307.66
302.04
283.22
255.42
222.95
189.25
156.61
126.40
99.61
77.05
59.36
46.66
38.41
33.35
29.80
26.05
20.82
13.65
4.81
-4.90
-14.51
-23.26
-30.87
-37.55
-43.89
-50.56
-57.96
-66.17
-74.89
-83.57
-91.73
-99.11
-105.78
-112.22
-119.25
-127.86
-138.92
-152.57
-167.70
-181.59
-190.20
-189.16
-174.93
-145.88
-102.75
-48.53
12.22
74.09
131.59
179.82
215.08
235.35
240.59
232.57
214.37
189.64
161.86
133.93
107.96
85.33
66.69
52.12
41.26
33.47
28.15
24.73
22.71
21.52
20.50
18.84
15.80
10.87
3.88
-4.89
-14.84
-25.16
-35.18
-44.49
-53.04
-61.10
-69.01
-76.96
-84.86
-92.40
-99.16
-104.94
-109.89
-114.68
-120.30
-127.79
-137.61
-149.08
-160.06
-167.01
-165.77
-152.54
-125.08
-83.41
-30.16
29.85
90.54
145.61
189.73
219.23
232.63
230.61
215.61
191.31
161.85
131.13
102.33
77.60
57.98
43.54
33.72
27.66
24.47
23.40
23.76
24.92
26.21
26.96
26.47
24.26
20.01
13.75
5.83
-3.14
-12.41
-21.39
-29.74
-37.51
-44.97
-52.47
-60.20
-68.09
-75.88
-83.26
-90.07
-96.41
-102.70
-109.55
-117.45
-126.35
-135.21
-141.88
-143.27
-136.05
-117.59
-87.08
-46.02
1.74
50.80
95.43
130.77
153.84
163.74
161.52
149.50
130.69
108.17
84.71
62.58
43.32
27.78
16.08
7.83
2.38
-0.91
-2.55
-2.88
-2.28
-1.21
-0.31
-0.24
-1.54
-4.47
-8.93
-14.48
-20.57
-26.65
-32.36
-37.57
-42.36
-46.93
-51.50
-56.16
-60.86
-65.39
-69.61
-73.54
-77.59
-82.48
-89.03
-97.59
-107.62
-117.34
-123.86
-123.71
-113.75
-92.17
-59.26
-17.51
28.66
73.92
113.15
142.44
159.75
164.91
159.38
145.64
126.56
104.96
83.29
63.48
46.84
34.01
24.94
19.07
15.53
13.42
12.02
10.91
9.91
8.93
7.73
5.95
3.16
-0.94
-6.34
-12.71
-19.61
-26.69
-33.84
-41.19
-48.88
-56.91
-65.00
-72.70
-79.54
-85.27
-90.04
-94.39
-99.19
-105.38
-113.59
-123.58
-133.94
-141.90
-143.76
-135.74
-114.99
-80.78
-34.94
18.18
72.66
122.31
161.93
188.32
200.56
199.75
188.38
169.57
146.49
121.95
98.24
77.06
59.42
45.70
35.70
28.89
24.54
21.94
20.46
19.57
18.81
17.74
15.88
12.81
8.21
2.01
-5.53
-13.87
-22.36
-30.46
-37.98
-45.07
-52.10
-59.34
-66.78
-74.05
-80.64
-86.21
-90.92
-95.50
-101.07
-108.64
-118.53
-129.85
-140.26
-146.28
-143.97
-129.97
-102.58
-62.49
-12.94
40.84
92.77
137.31
170.46
190.37
197.23
192.68
179.19
159.48
136.22
111.87
88.64
68.29
51.96
40.03
32.09
27.26
24.46
22.86
21.94
21.52
21.47
21.46
20.95
19.25
15.79
10.36
3.25
-4.90
-13.27
-21.24
-28.57
-35.37
-42.00
-48.77
-55.75
-62.64
-68.92
-74.08
-77.97
-80.93
-83.85
-87.85
-93.79
-101.73
-110.54
-117.82
-120.32
-114.70
-98.54
-71.20
-34.25
8.73
52.83
93.00
125.04
146.36
156.17
155.28
145.60
129.55
109.65
88.24
67.30
48.42
32.64
20.46
11.80
6.13
2.73
0.83
-0.11
-0.44
-0.40
-0.22
-0.22
-0.83
-2.47
-5.43
-9.79
-15.32
-21.52
-27.81
-33.66
-38.75
-43.08
-46.94
-50.63
-54.37
-58.11
-61.62
-64.66
-67.20
-69.62
-72.65
-77.07
-83.30
-90.98
-98.71
-104.14
-104.47
-97.08
-80.36
-54.27
-20.54
17.56
55.83
89.99
116.51
133.21
139.48
136.21
125.38
109.58
91.41
73.10
56.31
42.01
30.61
22.10
16.20
12.55
10.76
10.41
11.07
12.22
13.29
13.70
12.96
10.78
7.11
2.17
-3.63
-9.76
-15.75
-21.35
-26.57
-31.67
-36.99
-42.70
-48.65
-54.32
-59.10
-62.58
-64.81
-66.44
-68.54
-72.16
-77.93
-85.55
-93.70
-100.12
-102.01
-96.68
-82.28
-58.44
-26.65
9.95
47.14
80.60
106.80
123.70
130.86
129.20
120.53
106.96
90.62
73.36
56.82
42.25
30.50
21.92
16.40
13.50
12.67
13.39
15.21
17.63
20.02
21.58
21.51
19.17
14.40
7.49
-0.81
-9.53
-17.77
-24.96
-30.97
-36.15
-41.09
-46.42
-52.42
-58.94
-65.38
-71.02
-75.32
-78.30
-80.65
-83.59
-88.45
-96.06
-106.20
-117.24
-126.16
-129.09
-122.26
-103.10
-71.17
-28.61
20.17
69.53
113.88
148.88
172.17
183.37
183.57
174.79
159.33
139.55
117.76
96.11
76.48
60.17
47.71
38.82
32.72
28.51
25.53
23.50
22.36
22.09
22.37
22.52
21.61
18.82
13.76
6.68
-1.60
-10.03
-17.71
-24.25
-29.79
-34.87
-40.08
-45.79
-51.93
-58.10
-63.77
-68.49
-72.12
-74.96
-77.72
-81.33
-86.55
-93.50
-101.30
-107.97
-110.73
-106.71
-93.76
-71.21
-40.20
-3.53
34.91
70.95
100.99
122.44
134.14
136.20
129.87
117.08
100.13
81.34
62.74
46.01
32.20
21.79
14.66
10.24
7.79
6.65
6.35
6.65
7.37
8.28
8.93
8.80
7.39
4.41
-0.09
-5.79
-12.18
-18.74
-25.03
-30.83
-36.12
-40.99
-45.59
-49.98
-54.12
-57.86
-61.07
-63.73
-66.11
-68.71
-72.20
-77.11
-83.57
-90.90
-97.58
-101.34
-99.65
-90.35
-72.29
-45.74
-12.56
24.10
60.37
92.43
117.13
132.55
138.19
134.81
124.15
108.45
90.12
71.40
54.20
39.91
29.26
22.27
18.33
16.44
15.58
15.04
14.46
13.81
13.18
12.46
11.38
9.45
6.28
1.70
-4.14
-10.86
-17.93
-24.93
-31.59
-37.87
-43.91
-49.85
-55.79
-61.64
-67.10
-71.87
-75.75
-78.93
-82.00
-85.87
-91.43
-98.99
-107.88
-116.35
-121.63
-120.54
-110.21
-88.92
-56.75
-15.83
29.83
75.22
115.31
146.14
165.46
172.96
169.91
158.53
141.45
121.22
100.11
79.97
62.22
47.71
36.74
29.13
24.41
21.98
21.24
21.61
22.49
23.26
23.26
21.93
18.84
13.86
7.11
-1.00
-9.86
-18.84
-27.39
-35.24
-42.40
-49.09
-55.60
-62.09
-68.47
-74.38
-79.40
-83.26
-86.07
-88.50
-91.62
-96.57
-103.95
-113.42
-123.30
-130.67
-131.81
-123.11
-102.10
-68.36
-23.93
26.87
78.40
124.88
161.70
186.06
197.27
196.32
185.31
166.95
144.08
119.46
95.61
74.52
57.51
45.08
36.87
31.89
28.95
26.98
25.32
23.76
22.38
21.18
19.91
18.00
14.75
9.65
2.69
-5.61
-14.41
-22.80
-30.21
-36.51
-41.92
-46.83
-51.58
-56.25
-60.70
-64.69
-67.96
-70.49
-72.51
-74.58
-77.48
-81.96
-88.38
-96.33
-104.38
-110.07
-110.36
-102.29
-83.98
-55.25
-18.06
23.81
65.55
102.34
130.41
147.64
153.70
149.73
137.87
120.66
100.74
80.53
62.02
46.63
35.10
27.35
22.73
20.19
18.65
17.30
15.70
13.74
11.49
8.99
6.10
2.51
-2.20
-8.32
-15.85
-24.40
-33.34
-41.92
-49.60
-56.11
-61.56
-66.25
-70.47
-74.37
-77.88
-80.76
-82.75
-83.74
-83.96
-83.94
-84.52
-86.43
-90.04
-94.94
-99.75
-102.20
-99.48
-88.94
-68.86
-39.19
-1.81
39.65
80.54
116.21
143.01
158.90
163.60
158.26
144.99
126.32
104.87
83.09
63.12
46.49
34.04
25.77
20.99
18.63
17.59
17.00
16.34
15.42
14.18
12.54
10.26
7.03
2.55
-3.21
-9.95
-17.03
-23.75
-29.57
-34.39
-38.55
-42.64
-47.23
-52.53
-58.34
-64.15
-69.38
-73.73
-77.33
-80.76
-84.91
-90.70
-98.60
-108.30
-118.33
-126.12
-128.30
-121.50
-103.25
-72.94
-32.27
14.85
63.08
106.90
141.82
165.18
176.34
176.33
167.16
151.29
131.22
109.31
87.76
68.41
52.57
40.76
32.74
27.74
24.87
23.43
23.03
23.45
24.39
25.29
25.37
23.80
20.00
13.81
5.59
-3.94
-13.87
-23.39
-31.91
-39.28
-45.70
-51.63
-57.57
-63.80
-70.25
-76.49
-81.92
-86.16
-89.28
-92.02
-95.53
-100.98
-109.01
-119.17
-129.68
-137.54
-139.01
-130.46
-109.42
-75.40
-30.41
21.13
73.39
120.31
157.00
180.63
190.59
188.17
175.76
156.19
132.37
107.04
82.66
61.22
44.00
31.32
22.68
17.04
13.33
10.81
9.20
8.50
8.74
9.62
10.44
10.20
7.94
3.04
-4.47
-13.86
-23.98
-33.57
-41.75
-48.31
-53.64
-58.53
-63.69
-69.45
-75.56
-81.35
-86.06
-89.29
-91.16
-92.48
-94.49
-98.49
-105.37
-115.10
-126.29
-136.16
-140.86
-136.29
-119.20
-88.29
-44.95
6.73
60.78
110.68
150.88
177.84
190.50
189.97
178.74
159.93
136.67
111.77
87.64
66.21
48.80
36.04
27.76
23.18
21.20
20.79
21.21
22.12
23.39
24.81
25.94
26.04
24.33
20.29
13.94
5.89
-2.92
-11.50
-19.20
-25.94
-32.10
-38.27
-44.88
-51.98
-59.17
-65.79
-71.26
-75.42
-78.69
-82.03
-86.64
-93.58
-103.18
-114.66
-125.84
-133.33
-133.13
-121.75
-97.35
-60.63
-14.91
34.57
81.96
122.20
151.92
169.72
175.82
171.52
158.77
139.95
117.77
95.03
74.27
57.23
44.61
36.06
30.59
27.18
25.12
24.19
24.41
25.68
27.52
29.02
29.11
26.91
22.10
14.95
6.26
-2.99
-11.95
-20.18
-27.70
-34.84
-42.07
-49.70
-57.68
-65.61
-72.83
-78.85
-83.52
-87.33
-91.36
-97.01
-105.47
-117.08
-130.72
-143.68
-151.92
-150.98
-137.17
-108.83
-67.03
-15.64
39.54
92.10
136.52
169.15
188.65
195.60
191.91
180.04
162.54
141.77
119.81
98.44
78.99
62.25
48.51
37.60
29.25
23.29
19.69
18.46
19.32
21.52
23.83
24.84
23.41
18.95
11.70
2.47
-7.70
-17.86
-27.49
-36.47
-45.02
-53.51
-62.22
-71.24
-80.40
-89.31
-97.48
-104.59
-110.72
-116.51
-123.04
-131.52
-142.50
-155.27
-167.41
-175.15
-174.21
-161.05
-134.00
-93.74
-43.27
12.84
69.33
121.19
164.26
195.65
213.94
219.24
213.10
198.18
177.79
155.31
133.62
114.81
100.03
89.58
83.05
79.65
78.45
78.57
79.25
79.79
79.44
77.50
73.26
66.22
56.21
43.47
28.63
12.57
-3.81
-19.74
-34.77
-48.77
-61.83
-74.13
-85.86
-97.06
-107.62
-117.36
-126.06
-133.69
-140.54
-147.32
-154.95
-164.18
-174.97
-185.89
-194.08
-195.71
-187.00
-165.28
-129.87
-82.30
-26.17
33.47
90.95
140.77
178.51
201.44
208.97
202.57
185.34
161.22
134.10
107.31
83.25
63.39
48.42
38.28
32.34
29.56
28.76
28.87
28.97
28.39
26.63
23.34
18.35
11.67
3.55
-5.65
-15.55
-25.89
-36.60
-47.64
-58.88
-70.02
-80.60
-90.23
-98.67
-106.05
-112.75
-119.34
-126.41
-134.60
-144.50
-156.24
-169.15
-181.30
-189.61
-190.51
-180.95
-159.33
-125.88
-82.53
-32.39
20.57
71.83
116.58
150.35
169.89
174.27
165.21
146.73
123.83
101.13
81.79
67.32
57.98
53.40
52.91
55.80
61.19
68.05
75.35
82.11
87.42
90.25
89.37
83.39
71.06
51.83
26.37
-3.37
-34.37
-63.33
-87.50
-105.28
-116.45
-122.06
-123.83
-123.70
-123.52
-124.87
-129.08
-137.18
-149.76
-166.69
-186.74
-207.55
-225.69
-237.35
-239.28
-229.67
-208.72
-178.39
-141.56
-100.82
-57.71
-12.70
33.99
81.26
126.52
165.94
195.65
213.20
218.50
213.70
202.22
187.44
171.77
156.57
142.52
130.38
121.15
115.94
115.30
118.86
125.12
131.75
136.15
136.08
130.19
118.38
101.74
82.21
61.93
42.62
25.07
9.19
-5.63
-19.94
-33.78
-46.65
-57.84
-66.89
-74.04
-80.22
-86.85
-95.39
-106.82
-121.20
-137.42
-153.09
-164.91
-169.24
-162.90
-144.02
-112.58
-70.60
-21.79
29.19
77.52
119.15
151.21
172.25
182.15
181.86
173.08
158.03
139.12
118.63
98.52
80.18
64.41
51.56
41.76
35.09
31.62
31.21
33.34
36.99
40.78
43.29
43.43
40.70
35.26
27.79
19.21
10.38
1.82
-6.41
-14.61
-23.23
-32.49
-42.28
-52.06
-61.08
-68.78
-75.05
-80.48
-86.16
-93.44
-103.39
-116.23
-130.84
-144.65
-153.89
-154.40
-142.66
-117.00
-78.30
-29.94
22.85
74.30
119.36
154.67
178.76
191.71
194.60
188.86
176.16
158.29
137.24
115.14
93.95
75.21
59.80
47.94
39.43
33.90
30.93
30.00
30.41
31.22
31.33
29.71
25.63
18.87
9.72
-1.19
-13.06
-25.18
-37.09
-48.62
-59.77
-70.66
-81.33
-91.71
-101.60
-110.76
-119.10
-126.85
-134.64
-143.48
-154.39
-167.85
-183.09
-197.80
-208.32
-210.57
-201.23
-178.76
-143.78
-98.65
-46.81
7.98
62.03
111.88
154.34
186.78
207.58
216.43
214.50
203.97
187.51
167.64
146.43
125.47
106.05
89.23
75.86
66.48
61.20
59.52
60.46
62.58
64.28
64.14
61.19
55.13
46.24
35.24
23.02
10.36
-2.25
-14.64
-26.90
-39.13
-51.35
-63.32
-74.64
-84.95
-94.05
-102.08
-109.48
-116.96
-125.46
-135.86
-148.68
-163.51
-178.58
-190.70
-195.76
-189.88
-170.55
-137.41
-92.37
-39.18
17.50
72.90
122.80
163.96
194.29
213.00
220.49
218.12
207.85
191.78
171.95
150.23
128.35
107.81
89.86
75.30
64.45
57.22
53.25
51.97
52.54
53.92
54.79
53.81
49.92
42.64
32.29
19.84
6.61
-6.27
-18.21
-29.24
-39.85
-50.55
-61.64
-73.00
-84.19
-94.74
-104.31
-112.83
-120.59
-128.20
-136.62
-146.95
-160.06
-175.91
-192.95
-207.94
-216.45
-214.06
-197.67
-166.50
-122.35
-69.07
-11.64
44.79
95.71
137.65
168.43
187.21
194.50
191.83
181.41
165.65
146.79
126.73
107.02
88.86
73.19
60.56
51.20
45.04
41.86
41.23
42.53
44.84
47.02
47.74
45.89
40.82
32.59
21.86
9.70
-2.85
-15.07
-26.74
-38.00
-49.14
-60.33
-71.50
-82.38
-92.61
-101.97
-110.44
-118.26
-125.95
-134.32
-144.31
-156.66
-171.40
-187.21
-201.28
-209.64
-208.26
-194.32
-167.02
-127.76
-79.48
-25.88
29.31
82.52
130.35
169.62
197.76
213.34
216.54
209.07
193.72
173.55
151.31
129.15
108.59
90.70
76.17
65.39
58.38
54.79
53.94
54.82
56.21
56.81
55.56
51.78
45.35
36.62
26.24
14.87
3.00
-9.16
-21.65
-34.55
-47.83
-61.23
-74.26
-86.39
-97.28
-106.89
-115.55
-123.85
-132.47
-142.20
-153.75
-167.61
-183.58
-200.18
-214.56
-222.76
-220.85
-206.22
-178.54
-139.65
-92.73
-41.00
12.90
66.83
118.48
164.85
202.45
228.28
240.96
241.30
231.91
216.16
197.02
176.54
155.91
136.01
117.89
102.75
91.67
85.16
82.86
83.65
85.93
88.00
88.49
86.51
81.68
74.04
63.90
51.75
38.14
23.64
8.69
-6.35
-21.30
-36.04
-50.45
-64.28
-77.22
-88.98
-99.37
-108.51
-116.80
-124.99
-134.07
-145.16
-159.08
-175.77
-193.74
-209.77
-219.51
-218.53
-203.74
-174.29
-131.78
-79.70
-22.49
35.35
89.69
137.10
174.83
201.12
215.39
218.35
211.74
197.91
179.28
157.98
135.78
114.20
94.50
77.71
64.53
55.22
49.60
47.12
46.94
48.00
49.13
49.17
47.09
42.21
34.33
23.83
11.55
-1.43
-14.19
-26.22
-37.52
-48.40
-59.20
-70.04
-80.72
-90.92
-100.33
-108.84
-116.57
-123.82
-131.08
-139.11
-148.90
-161.34
-176.63
-193.54
-209.11
-219.04
-218.89
-205.45
-177.78
-137.34
-87.42
-32.13
24.37
78.25
126.05
164.78
192.22
207.35
210.66
204.00
190.11
171.88
151.81
131.78
113.16
96.85
83.49
73.34
66.40
62.32
60.56
60.35
60.80
60.90
59.69
56.34
50.37
41.77
30.99
18.80
6.06
-6.49
-18.45
-29.77
-40.67
-51.42
-62.18
-72.89
-83.30
-93.13
-102.18
-110.44
-118.09
-125.54
-133.44
-142.67
-154.19
-168.54
-185.16
-201.85
-214.84
-219.65
-212.48
-191.51
-157.37
-112.74
-61.29
-6.66
47.91
99.48
145.09
181.84
207.36
220.58
222.12
214.06
199.25
180.44
159.80
138.93
119.07
101.29
86.62
75.83
69.14
66.26
66.31
68.04
70.07
71.12
70.19
66.69
60.48
51.78
41.14
29.26
16.86
4.53
-7.37
-18.82
-30.04
-41.32
-52.90
-64.75
-76.58
-87.92
-98.35
-107.60
-115.73
-123.15
-130.53
-138.80
-148.95
-161.75
-177.14
-193.71
-208.49
-217.34
-216.13
-202.01
-174.27
-134.49
-85.76
-31.74
24.08
78.53
128.58
171.22
203.74
224.36
232.81
230.41
219.62
203.26
183.80
163.17
142.80
123.98
107.89
95.58
87.69
84.21
84.47
87.26
91.09
94.52
96.37
95.85
92.52
86.24
77.06
65.26
51.32
36.01
20.19
4.73
-9.76
-23.04
-35.24
-46.75
-57.92
-68.95
-79.74
-89.94
-99.15
-107.16
-114.20
-121.00
-128.73
-138.71
-151.92
-168.34
-186.44
-203.15
-214.19
-215.13
-202.50
-174.84
-133.18
-80.91
-23.06
34.81
87.52
131.18
163.51
183.79
192.60
191.28
181.58
165.49
145.15
122.80
100.66
80.69
64.17
51.66
42.97
37.55
34.79
34.22
35.44
37.95
40.97
43.44
44.16
42.16
36.94
28.61
17.91
6.02
-5.85
-16.72
-26.14
-34.25
-41.68
-49.15
-57.28
-66.23
-75.70
-85.05
-93.61
-100.95
-107.09
-112.62
-118.53
-126.04
-136.23
-149.46
-164.95
-180.46
-192.45
-196.73
-189.54
-168.62
-133.96
-87.93
-34.75
20.47
72.75
118.06
153.73
178.44
192.01
195.14
189.15
175.89
157.57
136.66
115.56
96.31
80.27
68.00
59.35
53.79
50.67
49.50
49.93
51.60
53.96
56.20
57.29
56.19
52.14
44.92
34.92
23.07
10.57
-1.47
-12.43
-22.25
-31.47
-40.81
-50.85
-61.72
-73.03
-84.05
-94.07
-102.72
-110.12
-116.92
-124.08
-132.70
-143.72
-157.48
-173.23
-188.82
-200.77
-204.92
-197.45
-176.06
-140.78
-94.07
-40.23
15.67
68.79
115.28
152.60
179.41
195.40
201.05
197.50
186.46
170.09
150.73
130.64
111.70
95.24
82.00
72.18
65.64
62.04
60.94
61.78
63.92
66.55
68.71
69.40
67.74
63.21
55.79
46.02
34.83
23.23
12.01
1.49
-8.47
-18.32
-28.52
-39.27
-50.38
-61.30
-71.35
-79.97
-86.95
-92.63
-97.81
-103.63
-111.34
-121.97
-135.95
-152.67
-170.12
-184.89
-192.65
-189.10
-171.28
-138.54
-93.03
-39.19
17.34
71.07
117.70
154.62
180.73
196.02
201.09
196.95
185.01
167.20
145.89
123.60
102.61
84.57
70.22
59.59
52.22
47.57
45.21
44.84
46.16
48.60
51.30
53.07
52.76
49.42
42.70
32.90
20.94
8.08
-4.46
-15.89
-26.04
-35.35
-44.56
-54.36
-65.05
-76.38
-87.62
-97.93
-106.66
-113.66
-119.41
-124.89
-131.37
-140.03
-151.46
-165.25
-179.70
-191.73
-197.38
-192.65
-174.68
-142.69
-98.49
-46.19
8.76
60.94
106.01
141.34
165.87
179.67
183.37
177.94
164.81
145.98
124.07
101.96
82.17
66.27
54.64
46.67
41.36
37.91
35.93
35.41
36.32
38.23
40.23
41.01
39.35
34.48
26.36
15.71
3.70
-8.39
-19.59
-29.52
-38.39
-46.77
-55.28
-64.27
-73.65
-82.99
-91.69
-99.35
-105.91
-111.77
-117.74
-124.90
-134.30
-146.57
-161.47
-177.40
-191.34
-199.26
-197.04
-181.61
-151.99
-109.71
-58.48
-3.30
50.67
99.14
139.15
169.12
188.54
197.69
197.33
188.75
173.72
154.41
133.18
112.25
93.33
77.49
65.12
56.24
50.64
48.11
48.33
50.70
54.28
57.73
59.56
58.48
53.74
45.32
33.93
20.77
7.14
-5.87
-17.66
-28.20
-37.94
-47.56
-57.66
-68.48
-79.74
-90.75
-100.72
-109.08
-115.88
-121.84
-128.22
-136.53
-147.92
-162.59
-179.29
-195.05
-205.71
-206.82
-194.87
-168.40
-128.42
-78.18
-22.36
33.96
86.12
130.53
164.88
188.24
200.82
203.75
198.65
187.34
171.60
153.18
133.86
115.32
99.01
85.85
76.17
69.77
66.21
65.03
65.81
68.03
70.89
73.24
73.81
71.50
65.77
56.85
45.60
33.27
21.04
9.70
-0.52
-9.92
-19.07
-28.54
-38.65
-49.29
-60.02
-70.16
-79.17
-86.83
-93.47
-99.94
-107.45
-117.29
-130.32
-146.47
-164.32
-180.86
-191.93
-192.98
-180.31
-152.31
-110.09
-57.46
-0.02
56.20
106.06
146.14
174.86
192.11
198.56
195.37
183.98
166.32
144.78
122.11
100.91
83.17
69.83
60.74
55.01
51.50
49.32
47.93
47.19
46.98
46.96
46.44
44.49
40.24
33.21
23.52
11.95
-0.40
-12.44
-23.49
-33.42
-42.54
-51.40
-60.43
-69.75
-79.12
-88.05
-96.09
-102.96
-108.76
-114.00
-119.51
-126.29
-135.27
-146.90
-160.71
-175.02
-186.85
-192.32
-187.58
-169.81
-138.25
-94.65
-43.03
11.28
62.88
107.39
142.09
165.88
178.73
181.26
174.45
159.66
138.90
114.87
90.59
68.84
51.43
38.97
30.92
26.25
24.04
23.80
25.41
28.67
32.87
36.70
38.54
37.01
31.48
22.38
10.92
-1.31
-12.96
-23.27
-32.25
-40.47
-48.71
-57.63
-67.41
-77.73
-87.86
-96.92
-104.29
-109.90
-114.30
-118.64
-124.34
-132.66
-144.20
-158.39
-173.21
-185.28
-190.51
-185.02
-166.29
-133.89
-89.71
-37.50
17.97
71.87
120.05
159.49
188.31
205.71
211.76
207.29
193.84
173.57
149.13
123.43
99.22
78.69
63.07
52.62
46.78
44.62
45.16
47.56
51.03
54.67
57.36
57.95
55.50
49.63
40.64
29.40
17.03
4.58
-7.26
-18.30
-28.72
-38.96
-49.47
-60.51
-72.02
-83.59
-94.62
-104.47
-112.83
-119.87
-126.35
-133.51
-142.66
-154.68
-169.30
-184.68
-197.46
-203.35
-198.30
-179.69
-147.08
-102.41
-49.52
6.73
61.47
110.52
150.89
180.88
199.99
208.68
208.14
199.97
186.04
168.41
149.13
130.21
113.29
99.49
89.27
82.55
78.94
77.92
78.92
81.23
83.86
85.59
85.15
81.48
74.15
63.42
50.20
35.77
21.40
7.97
-4.16
-15.14
-25.49
-35.74
-46.25
-57.03
-67.76
-77.96
-87.24
-95.53
-103.20
-111.04
-120.04
-131.21
-145.09
-161.40
-178.61
-193.86
-203.24
-202.62
-188.67
-159.97
-117.59
-65.10
-7.75
48.70
99.16
140.08
169.65
187.58
194.52
191.73
180.78
163.59
142.42
119.78
98.06
79.11
63.92
52.62
44.74
39.66
36.98
36.47
37.89
40.68
43.74
45.65
44.97
40.70
32.62
21.30
7.87
-6.34
-20.28
-33.38
-45.60
-57.25
-68.74
-80.31
-91.83
-102.95
-113.23
-122.40
-130.48
-137.87
-145.30
-153.67
-163.91
-176.65
-191.72
-207.73
-221.83
-230.18
-228.85
-214.96
-187.53
-147.65
-98.13
-42.73
14.41
69.19
117.73
156.65
183.56
197.46
199.06
190.58
175.11
155.96
136.11
117.97
103.35
93.48
88.88
89.37
94.11
101.84
111.17
120.87
129.90
137.41
142.64
144.90
143.68
138.92
131.07
121.05
110.04
99.09
88.79
79.19
69.86
60.21
49.65
37.79
24.42
9.46
-7.14
-25.33
-45.02
-66.06
-88.36
-111.88
-136.55
-161.84
-186.31
-207.26
-220.93
-223.17
-210.77
-182.60
-140.37
-88.45
-32.84
20.30
66.02
101.34
125.25
138.14
141.09
135.49
122.85
105.06
84.38
63.35
44.31
28.96
18.04
11.47
8.64
8.81
11.38
15.87
21.75
28.25
34.24
38.32
39.15
35.80
28.04
16.49
2.42
-12.56
-26.99
-39.96
-51.26
-61.27
-70.65
-79.97
-89.46
-98.99
-108.18
-116.69
-124.47
-131.85
-139.55
-148.50
-159.52
-172.84
-187.80
-202.47
-213.76
-217.98
-211.57
-192.11
-159.05
-114.08
-60.88
-4.57
49.35
95.85
131.24
153.42
162.04
158.20
144.14
122.85
97.59
71.52
47.24
26.62
10.64
-0.54
-7.29
-10.25
-10.19
-7.85
-4.00
0.49
4.74
7.95
9.48
9.05
6.69
2.72
-2.35
-7.97
-13.73
-19.49
-25.34
-31.50
-38.16
-45.26
-52.57
-59.70
-66.36
-72.49
-78.34
-84.51
-91.85
-101.33
-113.77
-129.29
-146.81
-163.75
-176.28
-180.19
-172.21
-151.01
-117.47
-74.24
-24.78
27.47
79.35
127.93
170.30
203.76
226.32
237.33
237.70
229.54
215.43
197.72
178.11
157.83
137.96
119.61
103.99
92.08
84.32
80.45
79.54
80.23
81.00
80.54
77.94
72.77
65.08
55.26
43.91
31.67
19.03
6.23
-6.71
-19.90
-33.41
-47.10
-60.59
-73.36
-84.93
-95.05
-103.86
-111.88
-119.97
-129.18
-140.56
-154.81
-171.75
-189.83
-205.93
-215.91
-215.57
-201.94
-174.15
-133.70
-83.88
-28.94
26.71
79.09
124.86
161.49
187.38
202.05
206.12
201.12
189.15
172.50
153.29
133.45
114.60
98.02
84.56
74.59
68.06
64.65
63.88
65.14
67.58
70.16
71.63
70.84
66.96
59.77
49.74
37.79
25.00
12.20
-0.25
-12.49
-24.89
-37.81
-51.26
-64.87
-78.02
-90.04
-100.52
-109.48
-117.46
-125.49
-134.90
-146.94
-162.19
-179.86
-197.44
-210.84
-215.37
-207.07
-183.96
-146.63
-98.13
-43.04
13.61
67.33
114.55
152.79
180.58
197.30
203.25
199.53
187.98
170.96
151.00
130.47
111.29
94.78
81.52
71.58
64.68
60.51
58.77
59.10
60.90
63.23
64.89
64.58
61.36
54.80
45.22
33.50
20.83
8.29
-3.42
-14.20
-24.31
-34.29
-44.55
-55.24
-66.11
-76.69
-86.45
-95.07
-102.60
-109.59
-117.05
-126.21
-138.18
-153.29
-170.48
-186.96
-198.53
-200.52
-189.16
-162.79
-122.51
-71.95
-16.26
39.20
89.98
133.09
166.93
190.92
205.05
209.65
205.46
193.71
176.29
155.64
134.34
114.69
98.22
85.53
76.40
70.20
66.37
64.53
64.48
65.89
68.12
70.05
70.32
67.69
61.43
51.58
38.88
24.62
10.13
-3.54
-15.91
-27.12
-37.72
-48.36
-59.37
-70.66
-81.68
-91.72
-100.20
-107.01
-112.65
-118.17
-124.94
-134.26
-146.85
-162.26
-178.56
-192.34
-199.28
-195.12
-176.90
-143.94
-98.18
-43.83
13.63
68.63
116.67
154.74
181.46
196.64
200.96
195.63
182.36
163.29
140.89
117.67
95.86
77.02
61.90
50.49
42.36
36.94
33.79
32.57
32.97
34.46
36.20
37.03
35.77
31.53
24.04
13.79
1.93
-10.16
-21.32
-31.02
-39.46
-47.36
-55.50
-64.31
-73.66
-82.91
-91.33
-98.45
-104.39
-109.91
-116.12
-124.16
-134.79
-147.97
-162.56
-176.23
-185.53
-186.47
-175.47
-150.46
-111.80
-62.50
-7.60
47.02
96.10
136.02
165.04
182.96
190.42
188.38
177.98
160.80
138.98
115.19
92.17
72.09
56.07
44.16
35.64
29.64
25.53
23.09
22.34
23.09
24.76
26.26
26.31
23.82
18.30
10.03
-0.04
-10.71
-20.96
-30.40
-39.23
-48.10
-57.59
-67.91
-78.69
-89.14
-98.41
-106.00
-112.05
-117.35
-123.15
-130.90
-141.78
-156.15
-173.09
-190.10
-203.33
-208.31
-201.21
-179.90
-144.62
-97.98
-44.22
11.73
65.18
112.32
150.46
178.11
194.83
201.07
197.99
187.24
170.78
150.73
129.25
108.30
89.51
73.96
62.13
54.02
49.40
47.89
49.00
51.99
55.81
59.07
60.33
58.46
53.01
44.31
33.39
21.50
9.63
-1.83
-13.09
-24.74
-37.26
-50.67
-64.41
-77.47
-88.85
-97.92
-104.72
-110.02
-115.18
-121.80
-131.35
-144.62
-161.24
-179.20
-194.91
-203.81
-201.52
-185.04
-153.81
-109.94
-57.70
-2.38
50.91
98.19
136.93
166.00
185.21
194.92
195.86
189.05
175.92
158.25
138.09
117.49
98.22
81.52
68.05
58.02
51.37
47.90
47.27
48.85
51.71
54.58
56.08
55.06
50.91
43.76
34.34
23.77
13.02
2.70
-7.25
-17.29
-28.05
-39.85
-52.49
-65.20
-76.92
-86.76
-94.37
-100.19
-105.41
-111.68
-120.65
-133.40
-149.85
-168.35
-185.61
-197.19
-198.50
-186.06
-158.60
-117.52
-66.64
-11.22
43.33
92.43
132.96
163.25
182.80
191.99
191.80
183.78
169.89
152.27
133.02
113.85
96.03
80.33
67.27
57.23
50.55
47.46
47.80
50.94
55.68
60.40
63.41
63.35
59.51
51.99
41.64
29.65
17.16
4.82
-7.28
-19.52
-32.29
-45.68
-59.29
-72.35
-84.01
-93.79
-101.82
-108.90
-116.32
-125.47
-137.31
-151.81
-167.50
-181.35
-189.18
-186.65
-170.55
-140.03
-97.08
-46.13
7.08
57.14
100.09
133.96
158.36
173.80
180.93
180.32
172.65
159.00
141.03
120.82
100.49
81.81
65.98
53.68
45.29
40.98
40.66
43.89
49.66
56.51
62.60
66.17
65.91
61.29
52.62
41.01
27.90
14.61
1.95
-9.87
-21.14
-32.30
-43.55
-54.73
-65.34
-74.86
-83.02
-90.01
-96.60
-103.94
-113.16
-124.99
-139.16
-154.02
-166.48
-172.42
-167.74
-149.61
-117.50
-73.64
-22.52
30.32
79.61
121.45
153.68
175.55
187.19
189.08
181.99
167.09
146.24
121.97
97.10
74.23
55.18
40.77
30.94
25.12
22.62
22.83
25.14
28.74
32.47
34.95
34.84
31.35
24.46
14.96
4.12
-6.84
-17.19
-26.85
-36.24
-45.92
-56.22
-66.98
-77.65
-87.44
-95.80
-102.58
-108.29
-113.89
-120.55
-129.23
-140.12
-152.26
-163.35
-169.91
-168.04
-154.46
-127.63
-88.51
-40.56
11.04
60.74
103.85
137.27
159.65
170.92
171.82
163.69
148.26
127.81
104.98
82.38
62.18
45.73
33.47
25.20
20.43
18.57
19.09
21.32
24.40
27.29
28.88
28.30
25.10
19.42
11.80
3.06
-6.10
-15.30
-24.51
-33.98
-43.93
-54.34
-64.86
-74.93
-84.04
-92.01
-99.19
-106.47
-115.01
-125.90
-139.68
-155.74
-172.08
-185.32
-191.23
-185.80
-166.29
-132.25
-85.85
-31.50
25.24
78.93
125.28
161.66
187.05
201.48
205.63
200.57
187.70
168.97
146.74
123.59
101.78
82.94
67.80
56.51
48.87
44.60
43.39
44.61
47.29
50.07
51.48
50.34
46.04
38.64
28.70
17.05
4.43
-8.59
-21.71
-34.85
-48.02
-61.21
-74.35
-87.22
-99.49
-110.79
-120.90
-129.96
-138.63
-148.03
-159.37
-173.16
-188.44
-202.41
-210.73
-208.67
-192.56
-161.08
-115.82
-60.98
-2.20
54.75
105.12
145.77
175.27
193.51
201.28
199.87
190.93
176.30
157.95
137.90
118.00
99.75
84.18
71.83
62.83
57.11
54.49
54.59
56.74
59.98
63.01
64.45
63.14
58.45
50.46
39.96
28.15
16.20
4.78
-6.05
-16.76
-27.94
-39.88
-52.44
-65.01
-76.85
-87.40
-96.58
-104.86
-113.20
-122.81
-134.70
-149.29
-165.73
-181.73
-193.60
-196.94
-187.74
-163.59
-124.54
-73.37
-15.10
44.13
98.33
142.83
174.86
193.55
199.64
194.80
181.27
161.56
138.28
114.10
91.36
71.81
56.28
44.72
36.50
30.91
27.47
26.05
26.52
28.42
30.84
32.44
31.89
28.32
21.60
12.29
1.47
-9.77
-20.60
-30.67
-40.10
-49.35
-58.88
-68.89
-79.12
-89.00
-97.80
-105.05
-110.86
-115.95
-121.57
-129.00
-138.99
-151.23
-163.91
-173.85
-176.98
-169.31
-148.09
-112.86
-65.83
-11.62
43.96
95.19
137.63
168.73
187.70
195.04
192.04
180.54
162.75
141.32
119.04
98.41
81.20
68.09
58.87
52.81
49.18
47.64
48.18
50.82
55.21
60.40
64.88
67.03
65.59
60.15
51.27
40.25
28.57
17.34
6.98
-2.89
-13.03
-24.17
-36.60
-49.99
-63.47
-76.02
-86.77
-95.47
-102.57
-109.24
-116.99
-127.06
-139.70
-153.56
-165.63
-171.70
-167.39
-149.49
-116.98
-71.67
-17.75
39.06
92.86
138.73
173.31
195.03
203.80
200.65
187.38
166.40
140.51
112.68
85.67
61.65
41.90
26.73
15.73
8.18
3.42
1.01
0.70
2.10
4.51
6.86
7.88
6.50
2.22
-4.75
-13.54
-23.05
-32.32
-40.92
-49.04
-57.25
-66.11
-75.86
-86.22
-96.43
-105.66
-113.24
-119.01
-123.46
-127.61
-132.81
-140.30
-150.68
-163.25
-175.79
-184.63
-185.42
-174.21
-148.69
-108.98
-57.78
0.18
59.19
113.70
159.32
193.20
214.20
222.53
219.46
207.00
187.67
164.32
139.85
116.83
97.12
81.59
70.20
62.29
56.97
53.60
51.78
51.33
51.95
53.02
53.55
52.33
48.31
41.00
30.67
18.36
5.51
-6.60
-17.29
-26.70
-35.57
-44.78
-54.78
-65.47
-76.14
-85.95
-94.26
-100.99
-106.62
-112.10
-118.64
-127.29
-138.60
-152.11
-166.02
-177.19
-181.57
-175.19
-155.32
-121.44
-75.63
-22.21
33.21
84.94
128.31
160.22
179.30
185.70
180.66
166.23
144.99
119.86
93.77
69.38
48.61
32.46
21.01
13.68
9.62
8.02
8.33
10.10
12.88
16.00
18.58
19.58
18.16
13.86
6.83
-2.19
-12.08
-21.72
-30.33
-37.70
-44.13
-50.18
-56.31
-62.63
-68.88
-74.60
-79.39
-83.24
-86.56
-90.17
-95.03
-101.89
-110.96
-121.55
-131.96
-139.44
-140.72
-132.67
-113.23
-82.18
-41.42
5.27
53.14
97.37
134.05
160.52
175.56
179.15
172.26
156.67
134.88
109.82
84.55
61.67
43.00
29.27
20.24
15.06
12.68
12.17
12.91
14.50
16.56
18.58
19.88
19.64
17.19
12.31
5.23
-3.22
-12.05
-20.41
-27.93
-34.85
-41.74
-49.19
-57.36
-65.89
-73.99
-80.80
-85.83
-89.26
-92.00
-95.55
-101.45
-110.63
-122.75
-135.63
-145.49
-147.70
-138.08
-114.21
-76.26
-26.93
29.31
87.40
142.93
192.54
234.01
265.80
286.56
295.21
291.28
275.65
250.98
221.62
192.79
169.24
153.89
146.93
145.90
146.50
144.09
134.95
117.20
91.11
58.94
24.64
-6.79
-30.22
-41.62
-39.32
-24.91
-3.22
18.97
34.81
39.30
30.13
7.40
-27.70
-73.68
-128.22
-186.66
-240.84
-280.03
-294.67
-281.27
-245.51
-201.33
-165.34
-149.23
-154.28
-170.74
-182.85
-176.53
-145.97
-95.72
-38.13
12.12
43.32
49.77
32.28
-2.87
-45.75
-85.24
-111.67
-119.46
-108.77
-85.02
-56.54
-30.95
-12.06
1.28
14.11
32.22
58.93
93.13
129.53
160.68
179.82
182.56
167.32
134.84
87.61
29.99
-31.32
-87.38
-128.62
-147.64
-142.29
-116.90
-80.49
-42.84
-10.44
15.43
37.28
57.89
77.59
93.63
102.12
100.69
89.78
71.43
46.85
14.89
-27.10
-80.03
-139.82
-196.47
-236.85
-249.93
-231.53
-185.65
-121.95
-50.91
20.21
88.01
150.75
205.41
246.40
267.27
264.03
237.66
193.67
139.29
80.06
18.57
-43.92
-104.73
-157.77
-194.52
-207.29
-192.88
-154.11
-98.64
-35.76
26.38
81.90
126.93
158.77
175.54
176.80
163.95
139.65
106.39
65.23
16.14
-39.82
-98.12
-150.43
-186.89
-200.19
-188.99
-158.42
-117.33
-74.22
-34.18
0.95
30.73
53.96
68.43
72.34
65.96
51.58
31.67
6.56
-25.79
-67.40
-116.51
-165.69
-203.21
-217.61
-202.77
-160.39
-98.57
-27.73
43.40
109.21
166.03
210.23
237.42
243.90
228.93
195.90
151.00
100.25
46.99
-8.09
-64.34
-118.11
-161.62
-185.33
-182.69
-154.14
-107.63
-55.11
-7.09
31.38
61.03
85.24
106.18
122.55
130.49
126.39
109.41
81.63
46.29
5.47
-40.24
-90.15
-141.13
-186.57
-218.04
-228.91
-217.49
-187.87
-147.56
-103.49
-58.65
-11.30
42.42
104.45
171.54
235.00
283.62
307.90
303.49
271.98
219.43
154.03
84.55
19.59
-32.79
-66.18
-77.87
-70.44
-51.58
-31.37
-17.93
-13.95
-16.22
-18.22
-14.12
-1.86
16.52
36.35
52.50
60.27
55.51
34.81
-3.04
-54.75
-111.50
-160.56
-189.57
-191.78
-168.98
-130.57
-88.81
-53.22
-26.99
-7.51
10.12
29.25
49.72
68.60
82.64
89.94
89.72
80.60
59.61
23.28
-29.08
-92.39
-155.01
-201.87
-220.09
-204.14
-157.83
-91.94
-19.25
50.26
111.37
162.56
203.44
232.88
248.93
250.37
238.04
214.84
184.02
147.29
104.46
55.06
0.80
-52.82
-97.44
-125.29
-133.05
-123.92
-106.39
-90.22
-81.54
-79.97
-79.26
-70.99
-49.26
-13.83
29.67
72.39
105.96
125.11
128.20
115.98
89.75
50.74
0.72
-56.22
-112.84
-159.67
-188.13
-193.80
-178.33
-148.47
-112.66
-76.90
-42.28
-5.52
37.73
88.95
144.51
196.39
235.57
255.95
256.61
241.45
216.43
186.26
152.36
113.27
67.08
14.27
-40.81
-91.00
-129.36
-152.30
-161.35
-162.11
-161.07
-161.92
-163.52
-160.58
-146.69
-118.01
-75.41
-24.28
27.58
72.72
105.82
123.69
124.44
106.83
70.82
19.05
-41.88
-101.85
-149.86
-177.81
-183.66
-172.09
-152.25
-133.47
-121.13
-114.68
-108.73
-96.23
-72.07
-35.45
9.86
56.90
97.57
124.19
130.60
113.15
71.98
12.34
-55.03
-115.48
-154.31
-161.78
-136.75
-87.25
-27.03
30.20
75.89
108.52
132.06
151.72
170.20
186.31
196.14
195.41
181.42
153.53
112.87
62.32
7.07
-45.25
-85.46
-105.75
-103.26
-82.08
-52.07
-24.62
-7.47
-1.65
-2.20
-1.76
5.00
19.04
37.26
54.80
67.21
71.29
64.86
46.41
15.72
-25.11
-70.99
-114.72
-149.12
-169.42
-174.51
-166.43
-148.97
-125.79
-99.52
-71.44
-42.03
-11.90
17.01
40.63
53.25
49.58
28.06
-6.76
-44.31
-71.63
-78.86
-63.76
-32.33
4.72
37.78
62.67
81.01
97.15
114.06
131.12
145.25
153.51
155.29
152.17
145.68
134.72
115.00
81.24
31.02
-31.76
-96.67
-149.89
-179.71
-181.40
-159.00
-122.87
-84.86
-53.30
-30.73
-15.00
-2.34
9.79
21.64
32.01
39.64
43.13
40.27
27.34
0.41
-41.52
-93.49
-144.26
-179.48
-187.37
-163.99
-114.62
-50.80
15.06
74.37
123.86
163.91
195.74
219.36
233.42
236.53
228.47
210.29
183.38
148.44
105.58
55.83
2.63
-47.62
-87.18
-109.95
-114.23
-103.38
-83.80
-61.30
-38.27
-13.55
15.39
49.17
84.39
114.16
130.86
129.22
107.99
69.84
20.02
-34.96
-88.08
-132.71
-163.83
-179.36
-180.95
-173.18
-161.01
-147.31
-131.92
-112.77
-88.21
-58.65
-26.42
5.19
32.82
53.12
62.37
56.97
35.52
1.18
-37.36
-68.04
-80.12
-68.89
-37.60
4.55
46.99
82.12
107.30
123.68
133.78
138.98
138.69
130.72
112.43
82.13
40.56
-8.37
-57.62
-98.59
-123.97
-130.57
-120.69
-101.01
-79.08
-59.69
-42.86
-24.69
-0.47
31.78
69.38
105.56
131.95
141.70
131.82
103.47
60.88
9.99
-43.04
-92.64
-134.25
-164.49
-181.62
-185.72
-178.57
-163.09
-142.26
-117.84
-89.73
-56.42
-16.80
27.82
72.78
111.02
135.44
141.56
128.69
99.14
56.51
4.20
-54.58
-115.59
-172.73
-218.53
-246.29
-252.70
-239.08
-210.84
-175.65
-141.08
-113.21
-96.25
-92.52
-102.03
-122.23
-148.14
-173.23
-191.17
-197.50
-190.60
-171.50
-143.12
-109.29
-73.91
-40.13
-9.79
16.81
39.89
58.67
69.93
68.30
48.58
9.03
-46.09
-106.83
-160.91
-198.61
-216.37
-217.14
-207.49
-193.47
-177.74
-159.64
-137.53
-111.31
-83.30
-56.52
-32.34
-8.68
19.40
56.78
104.85
159.66
212.52
253.01
272.85
268.78
243.53
204.58
161.60
123.54
96.41
82.48
80.48
86.93
97.93
110.80
125.10
142.66
166.66
199.93
242.94
292.62
342.60
384.63
411.11
417.43
403.41
373.01
332.37
287.18
240.59
192.51
140.37
81.25
14.18
-58.09
-129.27
-191.02
-235.62
-258.62
-259.94
-243.05
-212.48
-171.35
-120.85
-62.18
0.75
59.72
103.67
122.78
112.56
75.66
20.29
-43.48
-107.12
-164.84
-212.83
-247.97
-267.39
-269.49
-255.17
-228.32
-194.55
-159.09
-125.11
-93.22
-62.07
-29.04
8.70
53.26
104.67
159.94
212.61
254.19
276.75
275.66
250.68
204.99
143.40
70.86
-7.25
-84.13
-151.04
-198.83
-221.04
-216.82
-191.87
-156.11
-119.48
-88.08
-62.56
-39.14
-12.08
23.21
68.01
119.43
170.85
213.52
239.17
242.56
223.08
184.59
133.35
75.66
16.00
-43.06
-99.61
-150.88
-192.55
-219.72
-228.84
-219.53
-195.06
-161.46
-125.45
-92.21
-64.11
-40.27
-17.80
6.52
34.80
67.58
104.59
145.63
190.75
239.38
288.68
332.90
364.35
375.84
363.57
328.70
276.79
215.19
149.92
83.91
17.57
-48.96
-113.28
-170.01
-212.17
-233.94
-233.13
-211.78
-174.67
-126.52
-70.04
-6.04
64.06
135.78
200.74
248.87
272.31
269.13
244.42
207.90
169.38
134.30
101.84
66.11
20.27
-39.02
-108.93
-180.24
-240.31
-277.96
-287.97
-272.54
-240.05
-200.63
-161.95
-127.35
-94.93
-59.43
-15.66
38.87
102.79
170.98
236.50
291.76
329.07
344.37
338.88
317.81
287.75
254.13
219.33
183.89
146.62
103.94
54.05
-1.15
-57.52
-109.49
-151.11
-177.37
-183.95
-169.60
-139.26
-98.97
-52.46
-1.50
54.20
115.83
173.41
215.86
250.59
279.13
292.55
286.98
262.79
224.18
177.16
127.06
78.10
31.43
-17.30
-72.37
-134.20
-199.98
-263.80
-318.13
-356.11
-372.44
-365.55
-340.08
-302.62
-258.32
-210.77
-161.61
-110.99
-58.49
-2.87
56.70
118.51
179.62
236.24
283.12
314.84
327.44
319.72
293.75
253.98
205.95
156.53
113.91
85.51
75.53
82.57
98.70
111.55
108.11
79.45
24.53
-49.01
-127.47
-195.07
-238.29
-249.10
-226.00
-174.32
-104.51
-29.73
37.07
85.82
110.96
111.57
90.56
54.50
11.20
-31.38
-66.85
-91.77
-106.34
-113.91
-119.48
-128.39
-143.57
-166.74
-198.03
-236.07
-277.56
-317.00
-347.22
-361.21
-355.10
-328.23
-285.38
-233.98
-180.73
-128.44
-75.28
-17.51
50.38
120.42
185.36
234.73
260.03
258.03
232.46
192.53
148.10
106.00
68.02
34.00
2.46
-26.62
-52.47
-74.82
-95.39
-118.98
-150.74
-192.32
-238.18
-278.30
-301.70
-302.35
-281.03
-243.77
-199.55
-155.49
-113.70
-70.56
-20.75
42.54
117.97
192.08
252.37
290.20
301.34
288.04
258.28
221.84
186.09
152.74
119.33
82.77
41.22
-4.14
-49.34
-89.73
-122.42
-147.08
-165.47
-178.94
-186.66
-186.65
-176.51
-154.48
-120.16
-74.66
-20.19
40.06
102.34
162.44
215.21
255.47
279.59
286.83
279.45
261.58
237.35
209.39
178.15
142.48
101.59
56.86
12.78
-24.14
-47.81
-55.56
-49.94
-38.57
-31.84
-38.93
-64.06
-104.42
-151.10
-192.48
-218.87
-226.22
-217.16
-198.98
-179.56
-163.50
-150.23
-134.90
-111.18
-74.46
-24.38
34.72
95.30
148.84
188.28
209.65
212.54
199.66
175.74
146.00
114.87
85.15
57.75
32.20
7.36
-18.05
-45.43
-76.30
-112.06
-153.12
-197.78
-241.58
-277.71
-298.83
-299.81
-280.07
-244.03
-199.84
-156.02
-118.32
-87.98
-61.77
-33.94
1.32
47.60
104.80
168.68
231.59
284.10
317.74
327.81
315.20
285.89
248.63
211.32
178.22
149.36
121.97
92.81
59.82
22.53
-18.67
-63.15
-110.17
-158.36
-205.01
-246.07
-276.88
-293.29
-293.06
-276.76
-247.73
-211.38
-173.55
-138.75
-108.61
-81.53
-53.34
-19.15
24.66
78.72
139.82
201.37
255.07
293.17
310.94
308.11
288.62
258.80
224.71
189.88
154.56
116.75
74.09
26.22
-23.92
-70.36
-105.94
-125.21
-127.29
-117.50
-106.32
-105.78
-124.40
-163.36
-215.93
-270.45
-315.54
-344.45
-356.60
-355.73
-346.41
-331.06
-309.40
-280.03
-242.70
-199.61
-155.08
-113.68
-78.30
-49.05
-23.42
2.39
32.06
68.32
112.60
164.93
223.84
285.76
344.76
393.27
423.85
431.68
416.35
381.98
335.51
283.82
231.34
179.09
125.43
67.61
3.44
-67.54
-143.49
-220.08
-291.00
-349.19
-388.76
-406.94
-405.03
-387.51
-360.21
-328.01
-293.57
-257.65
-220.46
-182.83
-146.37
-112.69
-82.15
-53.24
-23.13
11.25
52.13
100.65
156.90
219.69
286.06
350.75
406.18
443.96
457.47
444.58
408.88
358.55
303.40
251.33
205.82
165.76
127.44
87.21
43.21
-4.54
-55.22
-108.06
-162.06
-214.90
-262.00
-297.09
-314.00
-309.48
-285.02
-246.31
-201.10
-156.16
-115.02
-77.77
-42.16
-5.06
36.39
84.16
138.66
198.03
257.71
311.25
352.01
375.28
379.74
367.52
342.96
310.69
274.39
236.23
197.21
157.65
117.48
75.94
31.37
-18.48
-75.51
-139.85
-208.83
-276.79
-336.34
-380.11
-403.17
-404.44
-386.54
-354.62
-314.41
-270.71
-226.59
-183.71
-142.81
-104.07
-67.04
-30.27
8.90
53.93
107.83
171.29
241.09
309.66
366.86
403.17
413.21
397.73
363.06
318.21
271.17
226.25
183.71
141.16
95.72
45.79
-8.50
-65.36
-121.85
-174.61
-220.63
-258.23
-287.74
-311.23
-331.04
-348.16
-361.18
-366.77
-361.56
-344.22
-316.42
-282.10
-245.55
-209.27
-173.44
-136.55
-97.07
-54.82
-11.02
32.84
76.67
122.58
173.81
232.24
295.93
358.15
408.90
438.57
441.79
419.45
378.03
326.57
273.03
222.25
175.76
133.30
94.48
58.99
25.59
-9.07
-50.20
-102.64
-167.60
-240.52
-311.62
-369.11
-403.99
-413.43
-401.11
-374.67
-341.60
-306.33
-269.69
-230.67
-188.74
-145.34
-103.29
-64.99
-30.85
1.41
36.27
78.81
132.84
198.97
273.23
347.25
410.21
452.01
466.84
454.98
422.23
377.16
327.51
277.84
229.24
180.49
129.62
74.90
15.12
-49.91
-118.49
-186.20
-245.88
-289.36
-310.41
-307.39
-283.83
-246.84
-204.25
-161.69
-121.53
-83.41
-45.66
-6.26
36.99
86.35
143.37
207.22
273.45
333.93
379.24
402.00
399.92
376.63
339.97
298.47
258.28
221.86
188.75
157.34
126.64
96.25
65.80
34.05
-1.04
-41.58
-88.79
-142.57
-201.58
-263.23
-323.96
-379.24
-424.12
-454.17
-466.67
-461.54
-441.24
-409.73
-371.00
-328.14
-283.01
-236.74
-190.50
-145.49
-102.62
-61.92
-22.18
18.90
64.16
116.07
175.63
241.14
307.87
368.47
414.79
440.38
442.55
423.15
387.62
342.72
294.24
245.69
198.34
152.08
106.48
60.98
14.42
-35.58
-92.47
-159.25
-236.05
-318.37
-397.13
-460.83
-499.78
-509.74
-493.42
-459.09
-416.62
-373.55
-332.75
-292.95
-251.25
-205.94
-157.94
-110.03
-65.13
-24.39
13.38
50.92
91.16
136.20
186.98
243.44
304.62
368.12
429.56
482.77
521.03
539.14
535.34
511.82
473.74
427.05
376.67
325.74
275.93
228.49
184.69
145.25
109.56
74.88
36.54
-10.79
-71.00
-144.29
-225.91
-306.25
-373.48
-417.21
-432.18
-419.99
-388.05
-346.22
-302.67
-261.29
-221.48
-179.96
-133.16
-78.89
-16.99
50.63
119.99
185.24
239.31
275.54
289.85
282.26
256.78
219.74
177.21
132.88
87.60
40.49
-9.26
-61.13
-113.29
-163.51
-210.07
-252.01
-288.51
-318.00
-337.96
-345.33
-337.81
-315.12
-279.53
-235.28
-187.37
-140.06
-95.76
-55.01
-16.85
20.40
58.44
98.72
142.60
191.55
246.92
309.05
376.01
442.82
501.96
545.48
567.84
568.06
549.99
520.44
486.22
451.81
418.66
386.24
353.78
321.34
289.66
259.08
228.70
196.46
160.24
119.31
74.94
29.99
-12.37
-50.22
-83.77
-115.13
-147.20
-182.42
-221.96
-265.55
-311.83
-358.54
-402.73
-440.84
-469.24
-485.16
-487.56
-477.42
-457.15
-429.30
-395.52
-356.24
-311.56
-262.42
-211.74
-163.74
-122.53
-89.72
-62.84
-36.34
-4.47
34.90
78.25
117.02
141.30
144.47
126.66
95.21
62.14
40.00
37.93
59.36
101.53
156.70
214.13
262.72
293.60
302.18
288.91
258.21
216.19
168.20
117.61
66.12
14.73
-35.55
-84.19
-131.30
-178.02
-225.46
-272.95
-316.83
-350.96
-368.73
-365.96
-342.95
-304.54
-258.08
-210.58
-166.69
-127.65
-92.15
-57.63
-21.76
16.30
55.03
90.34
116.49
128.13
122.32
99.72
64.62
23.67
-15.83
-47.58
-67.40
-73.64
-67.28
-51.62
-31.67
-12.81
0.85
7.91
9.98
10.64
13.50
20.47
31.04
42.66
52.09
56.50
53.90
43.56
25.57
0.70
-29.91
-64.75
-101.58
-137.36
-168.45
-191.23
-202.93
-202.46
-190.81
-170.72
-145.96
-120.08
-95.61
-73.92
-54.86
-37.36
-19.40
1.58
27.95
60.52
97.31
133.18
161.20
174.91
170.45
147.64
109.77
62.50
12.75
-32.34
-66.35
-84.66
-85.78
-72.18
-49.88
-26.33
-7.59
4.07
10.49
16.18
25.76
41.98
64.91
92.38
120.87
145.83
162.56
166.68
155.18
127.61
86.95
39.67
-5.72
-41.27
-62.23
-68.40
-63.73
-54.08
-44.32
-36.37
-28.93
-19.16
-4.63
15.25
39.57
67.29
97.96
131.31
165.76
197.28
220.07
228.87
221.62
200.62
171.10
137.99
103.10
64.67
19.84
-31.58
-84.88
-131.51
-162.93
-174.81
-168.77
-150.69
-126.87
-100.64
-71.76
-38.59
-1.64
34.45
61.93
73.25
65.62
42.81
13.79
-11.27
-25.58
-28.15
-23.27
-17.70
-17.26
-24.53
-38.64
-56.49
-74.48
-89.60
-99.48
-101.93
-94.65
-75.59
-43.93
-1.49
47.36
96.49
140.25
175.69
203.40
226.47
248.19
269.90
290.35
306.72
316.50
318.89
314.68
305.26
291.31
272.40
247.76
217.34
182.39
144.84
106.11
66.02
22.89
-25.04
-77.69
-131.94
-181.98
-221.19
-244.79
-251.74
-245.27
-231.79
-218.09
-209.09
-206.39
-208.48
-212.13
-214.06
-211.93
-204.70
-192.13
-174.41
-152.04
-126.04
-98.12
-70.80
-47.07
-29.52
-19.17
-14.40
-10.59
-1.57
18.20
50.73
92.95
137.17
173.50
193.14
191.13
167.72
128.21
81.42
37.38
4.69
-11.93
-12.83
-3.18
9.24
17.02
15.76
5.29
-11.25
-29.33
-45.20
-57.11
-65.45
-71.85
-78.46
-87.09
-98.61
-112.62
-127.35
-140.21
-148.84
-152.03
-150.09
-144.49
-136.94
-128.67
-120.04
-110.66
-99.78
-86.61
-70.41
-50.63
-26.95
0.35
30.11
60.04
87.07
108.31
122.36
130.42
136.35
145.37
161.91
187.23
218.17
247.77
267.45
269.94
251.75
214.43
163.99
109.02
58.00
17.05
-11.39
-28.56
-38.28
-45.33
-53.75
-65.61
-80.59
-96.38
-109.75
-117.92
-119.74
-116.40
-110.98
-107.31
-108.34
-115.04
-126.00
-138.26
-148.79
-155.83
-159.16
-159.64
-158.13
-154.71
-148.56
-138.46
-123.26
-102.45
-76.17
-44.80
-8.86
31.15
74.71
120.90
168.03
213.34
253.19
283.88
302.63
308.42
302.06
285.48
260.61
228.58
189.70
144.53
95.18
45.73
1.37
-33.62
-57.71
-72.63
-82.24
-90.48
-99.63
-109.80
-119.77
-128.39
-135.40
-141.55
-147.98
-155.35
-163.64
-172.39
-181.07
-189.30
-196.62
-202.14
-204.32
-201.26
-191.32
-173.85
-149.58
-120.55
-89.54
-59.07
-30.52
-3.90
21.70
47.16
72.27
95.92
116.84
135.07
152.72
173.00
197.93
226.09
252.06
268.30
268.71
251.61
220.41
181.59
141.20
102.17
63.84
23.76
-19.76
-66.06
-112.53
-156.23
-195.51
-230.36
-261.37
-288.14
-308.70
-320.19
-320.59
-310.35
-292.88
-273.32
-256.65
-245.28
-238.38
-232.53
-223.54
-208.41
-186.26
-158.04
-125.53
-90.42
-54.03
-17.59
17.39
49.35
77.22
101.18
122.63
143.88
167.19
194.44
227.25
266.79
313.14
364.01
414.18
456.42
484.01
493.56
486.51
468.13
444.46
419.33
392.96
363.11
327.52
286.10
241.10
195.63
151.78
109.48
67.02
22.44
-25.33
-76.24
-129.62
-184.59
-240.21
-294.98
-346.70
-392.09
-427.44
-449.29
-455.20
-444.15
-416.62
-374.52
-321.12
-260.86
-199.01
-140.82
-90.36
-49.43
-17.16
9.40
33.65
58.45
85.26
114.78
147.40
183.24
221.24
258.21
288.98
308.09
312.20
301.79
281.18
256.71
234.39
218.17
209.60
208.31
212.71
219.96
225.79
224.81
211.80
183.65
141.01
88.41
32.66
-19.48
-63.59
-98.64
-126.61
-151.35
-177.53
-209.24
-249.41
-299.14
-357.03
-418.58
-476.42
-521.37
-544.88
-541.69
-511.77
-460.53
-396.83
-329.81
-266.04
-208.16
-155.41
-105.32
-55.59
-4.67
48.21
103.69
162.40
223.93
285.56
341.64
384.68
408.31
410.26
393.68
365.87
335.04
306.87
282.84
261.05
238.64
214.05
187.57
160.01
130.89
97.75
57.40
8.66
-45.43
-97.44
-137.84
-158.85
-157.87
-138.62
-109.70
-81.34
-61.31
-52.88
-54.75
-63.18
-74.76
-88.35
-105.32
-128.27
-159.16
-197.81
-241.51
-285.55
-324.32
-352.66
-366.88
-365.36
-348.55
-318.60
-278.52
-231.42
-179.96
-126.02
-70.82
-14.89
41.46
98.03
154.51
209.93
261.94
306.69
339.84
358.34
362.19
354.86
341.88
328.37
316.79
306.17
293.25
274.75
249.14
216.99
179.80
138.53
93.00
42.84
-10.87
-64.32
-111.28
-145.12
-161.27
-159.07
-141.83
-115.65
-87.42
-62.80
-45.69
-38.52
-43.14
-61.21
-93.79
-140.23
-197.02
-257.50
-312.71
-353.55
-373.12
-368.62
-341.90
-298.43
-245.28
-188.86
-133.38
-80.33
-28.98
22.52
76.08
132.72
191.74
250.35
303.89
346.56
373.00
379.87
366.91
337.03
295.35
247.62
198.88
152.68
110.96
74.45
43.02
15.87
-8.29
-30.90
-52.92
-74.06
-92.56
-105.71
-111.07
-107.82
-97.77
-85.02
-74.82
-71.87
-78.94
-96.41
-122.67
-154.91
-190.12
-225.68
-259.67
-290.83
-318.41
-341.70
-359.53
-370.02
-370.79
-359.64
-335.57
-299.27
-253.19
-200.91
-146.22
-92.12
-40.68
7.19
51.44
92.78
132.64
173.30
217.76
268.96
328.31
394.00
460.27
518.22
558.50
574.79
566.20
537.51
496.96
452.73
410.07
370.43
332.59
294.85
256.62
218.55
181.60
145.80
109.77
71.28
28.31
-19.88
-72.25
-125.87
-176.88
-221.58
-257.60
-284.74
-304.88
-321.26
-337.29
-355.37
-376.31
-399.15
-421.53
-440.02
-450.76
-450.06
-435.25
-405.50
-362.29
-309.18
-250.71
-191.29
-134.05
-80.43
-30.42
17.03
63.95
113.22
168.13
231.00
301.20
373.71
439.51
488.07
511.13
506.02
476.63
431.66
380.84
331.47
286.54
245.33
205.37
164.52
121.75
76.77
29.35
-20.74
-73.11
-125.92
-175.79
-218.85
-252.18
-275.40
-290.97
-303.18
-316.49
-333.77
-355.35
-379.08
-401.13
-417.06
-422.74
-415.27
-393.45
-358.12
-312.01
-259.12
-203.65
-149.02
-97.42
-49.58
-5.21
36.80
78.32
122.15
171.59
229.05
294.03
361.63
422.73
466.48
484.19
472.93
436.80
385.27
329.22
276.88
231.40
191.11
151.83
109.61
62.53
10.90
-43.53
-98.38
-150.79
-197.33
-234.15
-258.14
-268.62
-269.06
-267.03
-271.81
-290.47
-324.13
-366.85
-407.61
-434.99
-441.78
-427.36
-396.80
-357.53
-315.74
-274.36
-233.48
-192.01
-149.58
-107.13
-66.25
-27.85
8.57
44.69
82.60
123.43
167.01
212.39
258.76
306.14
355.05
405.38
455.34
501.25
538.30
562.16
570.29
562.50
540.58
507.39
466.08
419.60
370.73
321.89
274.88
230.52
188.30
146.54
102.88
55.24
2.77
-53.28
-109.50
-160.75
-201.63
-228.43
-240.17
-239.25
-230.81
-221.55
-218.34
-227.01
-251.36
-292.41
-347.86
-411.88
-476.02
-530.84
-568.20
-583.38
-576.08
-550.06
-511.59
-467.40
-422.77
-380.64
-341.62
-304.87
-269.17
-233.74
-198.44
-163.64
-129.69
-96.55
-63.66
-30.27
4.22
39.86
75.98
111.47
145.31
176.98
206.84
235.98
265.75
297.46
332.27
371.35
415.68
465.33
518.29
569.90
613.25
641.16
648.61
634.66
602.63
558.64
509.21
459.41
412.05
368.23
328.07
291.16
256.41
221.72
184.12
140.71
90.06
33.18
-26.29
-83.11
-132.15
-170.48
-198.64
-220.88
-243.99
-275.07
-318.79
-375.09
-438.51
-499.48
-547.37
-574.09
-576.53
-556.88
-520.79
-474.49
-422.48
-366.99
-309.02
-250.02
-192.71
-140.48
-95.55
-57.36
-22.33
14.91
59.31
113.76
177.96
248.31
318.53
380.60
426.37
449.65
448.58
426.99
393.71
359.45
332.56
315.68
305.40
294.94
278.35
253.87
224.16
193.84
165.75
138.71
108.23
69.72
22.07
-30.75
-80.98
-120.92
-146.81
-160.63
-168.90
-179.63
-199.34
-230.81
-273.17
-322.73
-374.12
-421.26
-458.11
-479.71
-483.23
-468.80
-439.36
-399.59
-354.27
-307.10
-260.36
-215.28
-172.44
-132.10
-93.91
-56.78
-18.91
21.31
65.03
112.89
165.07
221.02
278.91
335.58
387.07
429.79
461.49
481.60
490.55
488.71
475.97
452.06
417.60
374.72
326.75
276.90
226.89
176.44
123.86
67.53
7.36
-54.54
-114.37
-167.82
-211.57
-244.87
-270.40
-293.79
-321.04
-355.49
-395.38
-433.71
-461.10
-469.94
-457.92
-428.65
-389.35
-346.83
-304.58
-262.16
-217.20
-168.29
-116.67
-65.90
-19.88
19.51
53.62
86.28
122.35
165.90
218.95
280.96
348.56
415.71
474.69
517.74
539.41
538.50
518.60
486.92
451.53
418.51
390.30
365.87
342.36
317.22
289.32
258.92
226.73
192.89
156.74
117.29
74.11
27.76
-20.26
-68.02
-113.90
-156.84
-196.34
-232.31
-265.04
-295.31
-324.72
-355.11
-387.75
-422.08
-454.99
-481.23
-494.90
-491.60
-470.02
-432.37
-383.44
-328.84
-273.15
-219.07
-167.29
-117.28
-68.31
-19.77
29.00
79.33
133.46
193.20
258.00
323.33
381.09
422.53
442.11
440.17
422.78
398.48
374.08
351.94
330.11
304.95
274.17
238.26
199.58
160.06
119.55
75.81
26.56
-28.24
-85.04
-137.39
-178.03
-202.02
-209.10
-204.25
-196.61
-196.04
-209.82
-240.08
-283.38
-332.44
-378.96
-416.24
-440.60
-451.29
-449.43
-436.89
-415.49
-386.77
-352.13
-312.99
-270.82
-227.10
-183.22
-140.30
-98.89
-59.00
-20.05
18.89
58.61
99.54
142.07
187.01
235.85
289.96
348.90
408.94
462.86
501.86
519.06
512.62
486.74
449.75
410.37
374.30
342.81
313.90
284.63
253.18
219.10
182.34
142.07
96.79
45.67
-9.63
-64.35
-111.82
-145.78
-163.26
-165.97
-159.72
-152.21
-150.13
-156.64
-170.63
-187.58
-201.64
-208.18
-205.81
-197.22
-188.56
-187.19
-198.52
-223.32
-256.54
-288.74
-309.49
-311.30
-292.24
-256.10
-210.02
-161.17
-114.08
-69.72
-26.33
18.75
67.26
119.35
173.43
226.61
275.24
315.25
342.46
353.33
346.04
322.01
286.51
247.69
214.10
191.61
181.40
179.90
180.90
178.41
168.79
151.03
125.60
93.04
53.34
6.75
-44.91
-97.64
-146.03
-185.10
-212.34
-228.70
-238.11
-245.87
-257.13
-275.26
-301.26
-333.66
-368.90
-402.10
-428.02
-442.19
-442.06
-427.67
-401.47
-367.37
-329.26
-289.73
-249.81
-209.57
-169.15
-129.44
-91.89
-57.45
-25.81
4.90
37.20
73.23
113.80
158.54
206.87
258.60
313.71
370.90
426.74
476.05
513.78
537.28
547.44
547.68
541.61
530.92
514.78
491.40
460.31
423.51
384.91
348.03
313.89
280.34
243.48
200.16
150.41
98.23
50.60
15.48
-1.13
2.64
23.27
52.88
81.29
98.89
99.50
81.83
49.32
8.44
-33.40
-69.71
-95.93
-109.90
-112.14
-105.70
-95.79
-88.59
-89.73
-102.59
-127.67
-162.75
-204.11
-247.71
-290.01
-328.35
-361.09
-388.18
-411.39
-433.48
-456.31
-478.89
-497.06
-505.78
-502.60
-490.04
-474.64
-463.34
-458.98
-458.31
-453.86
-438.45
-409.35
-369.59
-325.64
-283.53
-246.15
-212.69
-180.60
-147.81
-113.83
-79.36
-45.36
-12.16
20.63
53.71
87.56
122.10
156.85
191.39
226.09
262.51
303.35
351.24
406.84
466.98
524.34
569.13
592.42
589.71
562.58
517.96
464.92
410.98
359.74
310.82
261.78
210.55
157.01
102.95
51.03
3.49
-38.47
-74.41
-104.21
-127.97
-145.94
-158.91
-168.48
-176.38
-183.62
-189.95
-194.35
-196.47
-198.01
-202.70
-214.49
-234.93
-261.10
-286.14
-301.97
-303.07
-288.88
-263.55
-233.24
-202.57
-172.82
-142.11
-107.56
-67.65
-23.07
24.39
73.70
125.68
182.21
244.04
308.62
369.30
416.95
443.36
444.52
422.24
383.08
335.38
286.15
239.38
196.26
156.84
121.69
92.20
69.82
54.77
44.89
36.23
24.84
9.14
-8.83
-24.24
-32.57
-33.00
-30.05
-32.22
-47.74
-80.01
-124.97
-172.34
-209.80
-227.95
-223.31
-198.05
-157.37
-106.53
-49.67
9.51
66.53
115.65
151.49
171.47
177.53
175.73
174.06
179.12
193.73
216.69
244.03
271.03
293.64
309.10
315.57
311.83
297.27
272.18
237.71
195.56
147.66
96.28
44.39
-3.96
-44.04
-71.58
-84.45
-83.90
-74.79
-64.03
-58.02
-60.28
-69.96
-83.12
-95.47
-105.08
-113.09
-122.44
-135.03
-149.38
-160.61
-162.77
-152.20
-129.64
-99.76
-68.33
-39.26
-13.45
9.91
30.84
46.80
52.86
43.88
17.03
-26.59
-81.54
-139.06
-188.96
-221.75
-230.89
-214.44
-175.42
-121.01
-60.65
-3.63
42.82
74.14
87.86
83.00
59.67
19.49
-33.24
-91.01
-143.82
-181.19
-194.80
-180.73
-140.49
-80.52
-10.21
60.36
122.66
170.84
201.51
213.31
206.25
181.33
140.44
86.58
24.22
-40.18
-98.08
-139.71
-156.40
-143.81
-104.44
-47.96
11.62
60.56
89.89
97.45
86.61
62.41
28.02
-16.34
-71.40
-135.09
-199.94
-253.68
-283.17
-279.76
-243.10
-181.75
-109.94
-42.10
11.89
48.89
71.42
84.12
89.73
86.85
70.95
38.04
-11.23
-69.51
-124.40
-162.97
-176.72
-164.59
-131.67
-85.75
-33.89
18.97
68.77
109.98
134.91
135.82
108.86
57.22
-8.63
-74.38
-126.72
-157.50
-165.20
-153.43
-128.80
-98.55
-69.39
-47.26
-37.51
-44.46
-70.45
-114.59
-172.24
-235.78
-296.62
-347.50
-384.10
-405.29
-412.21
-407.28
-393.00
-371.71
-345.93
-318.48
-292.17
-268.93
-249.03
-230.97
-212.30
-191.06
-166.82
-140.90
-115.53
-92.42
-71.88
-52.40
-31.39
-6.44
23.25
56.35
89.66
119.74
144.32
163.52
179.76
196.73
217.78
245.01
279.18
319.66
364.29
408.66
446.07
469.13
473.26
460.32
439.78
425.88
431.07
459.51
504.01
548.86
577.05
577.85
550.69
503.52
447.30
390.47
336.26
283.82
231.36
178.55
126.69
77.40
31.00
-13.51
-57.02
-98.38
-133.79
-158.07
-167.12
-160.47
-142.11
-119.44
-100.64
-91.88
-95.40
-109.17
-127.92
-145.01
-154.53
-152.89
-139.82
-118.27
-93.33
-70.45
-53.63
-44.25
-41.15
-41.61
-42.76
-42.79
-41.49
-39.95
-39.77
-42.30
-48.10
-56.85
-67.71
-79.61
-91.62
-102.92
-112.69
-119.90
-123.31
-121.78
-115.05
-104.42
-93.10
-85.74
-87.02
-99.83
-123.65
-154.07
-183.73
-204.44
-209.64
-196.02
-164.05
-117.21
-60.70
-0.23
58.73
111.37
153.80
183.40
199.24
202.09
194.19
178.46
157.79
134.53
110.46
86.98
65.34
46.67
31.79
21.12
14.54
11.49
11.07
12.17
13.55
13.93
12.07
7.06
-1.50
-13.25
-27.06
-41.25
-54.00
-63.95
-70.55
-74.19
-75.89
-76.77
-77.43
-77.84
-77.49
-75.94
-73.40
-71.00
-70.50
-73.57
-80.91
-91.50
-102.62
-110.40
-110.95
-101.59
-81.75
-53.00
-18.46
18.19
53.76
86.06
113.92
136.91
154.90
167.87
175.88
179.10
177.89
172.70
164.07
152.66
139.38
125.44
112.28
101.17
92.93
87.56
84.35
82.00
79.15
74.66
67.80
58.33
46.42
32.62
17.81
3.07
-10.47
-21.95
-30.91
-37.52
-42.45
-46.63
-50.93
-55.92
-61.69
-68.00
-74.42
-80.62
-86.54
-92.40
-98.62
-105.52
-112.92
-120.05
-125.46
-127.38
-124.14
-114.67
-98.78
-77.19
-51.35
-23.10
5.51
32.47
55.84
73.98
85.67
90.41
88.57
81.37
70.69
58.67
47.30
38.02
31.62
28.09
26.87
26.97
27.27
26.74
24.66
20.67
14.77
7.20
-1.75
-11.90
-23.25
-35.94
-50.12
-65.74
-82.36
-99.15
-114.99
-128.81
-139.89
-148.04
-153.63
-157.35
-159.94
-161.96
-163.74
-165.56
-167.72
-170.59
-174.23
-177.96
-179.99
-177.66
-168.09
-149.21
-120.47
-82.94
-38.78
9.56
59.72
109.48
156.18
196.62
227.30
245.39
249.81
241.79
224.55
202.36
179.29
158.41
141.64
129.92
123.44
121.64
123.10
125.60
126.51
123.62
115.86
103.71
88.88
73.60
59.65
47.71
37.21
26.67
14.37
-1.09
-20.27
-42.78
-67.28
-91.68
-113.60
-130.76
-141.46
-144.93
-141.50
-132.61
-120.49
-107.74
-96.74
-89.01
-84.81
-83.10
-81.89
-79.06
-73.18
-64.30
-54.08
-45.27
-40.75
-42.46
-50.72
-64.02
-79.29
-92.46
-99.14
-95.50
-79.23
-50.43
-11.98
31.00
72.49
107.52
133.72
151.90
165.02
176.12
186.23
193.33
192.92
180.02
151.45
107.56
52.60
-6.31
-60.88
-103.48
-128.23
-131.65
-113.11
-75.18
-23.85
31.92
81.95
117.40
133.12
128.64
107.29
73.99
33.21
-11.78
-57.91
-101.10
-135.55
-154.84
-154.19
-132.39
-92.00
-37.73
25.54
93.77
162.88
227.36
279.73
312.14
319.68
303.10
269.38
229.14
192.36
164.65
145.99
132.41
119.04
102.76
83.08
61.25
38.63
15.77
-7.50
-31.18
-54.41
-75.36
-91.85
-102.39
-106.81
-106.33
-103.00
-98.95
-95.81
-94.41
-94.83
-96.66
-99.42
-102.73
-106.47
-110.73
-115.74
-121.68
-128.53
-135.84
-142.63
-147.32
-147.84
-141.89
-127.41
-103.22
-69.56
-28.30
17.19
62.73
104.14
137.96
161.86
174.82
177.06
169.99
155.95
137.87
118.65
100.59
85.12
72.71
63.32
56.66
52.40
50.06
48.94
48.28
47.33
45.30
40.96
32.37
17.10
-6.57
-37.96
-72.85
-104.10
-124.21
-128.71
-118.68
-100.54
-83.22
-73.97
-75.23
-84.19
-94.99
-102.27
-103.79
-100.94
-97.19
-95.68
-97.46
-101.18
-104.19
-104.03
-99.57
-91.08
-79.62
-66.10
-50.77
-33.37
-13.71
7.60
28.96
48.01
62.45
70.74
72.76
69.68
63.55
56.56
50.35
45.69
42.48
40.07
37.70
34.90
31.64
28.28
25.31
23.11
21.72
20.84
20.01
18.73
16.63
13.53
9.38
4.25
-1.79
-8.55
-15.71
-22.79
-29.20
-34.37
-37.96
-40.01
-41.00
-41.77
-43.31
-46.44
-51.55
-58.38
-66.01
-73.03
-77.73
-78.53
-74.30
-64.74
-50.55
-33.27
-14.97
2.30
16.91
27.82
34.59
37.05
35.25
29.42
20.09
8.24
-4.80
-17.54
-28.76
-37.80
-44.62
-49.66
-53.49
-56.55
-58.95
-60.50
-60.78
-59.52
-56.77
-53.06
-49.33
-46.65
-45.73
-46.62
-48.66
-50.71
-51.78
-51.52
-50.47
-49.90
-51.33
-55.97
-64.38
-76.46
-91.56
-108.61
-126.03
-141.62
-152.59
-156.02
-149.66
-132.62
-105.69
-70.90
-30.71
12.79
57.97
103.20
146.22
183.86
212.65
229.88
234.75
228.71
214.87
196.88
177.70
159.04
141.56
125.39
110.66
97.71
86.94
78.47
71.98
66.80
62.18
57.52
52.59
47.43
42.14
36.69
30.78
24.00
15.95
6.43
-4.42
-16.18
-28.19
-39.89
-50.98
-61.68
-72.80
-85.53
-100.90
-118.96
-138.20
-155.31
-165.83
-165.38
-150.95
-121.82
-79.77
-28.49
27.23
82.42
132.53
173.87
203.89
221.52
227.18
222.67
210.61
193.77
174.48
154.41
134.63
115.95
99.07
84.54
72.65
63.19
55.56
48.91
42.46
35.82
28.99
22.30
16.10
10.58
5.68
1.12
-3.41
-8.18
-13.29
-18.73
-24.40
-30.15
-35.85
-41.46
-47.11
-53.13
-59.96
-67.96
-77.10
-86.68
-95.32
-101.03
-101.67
-95.38
-81.08
-58.69
-29.33
4.79
40.72
75.12
104.84
127.32
141.02
145.57
141.73
131.20
116.29
99.42
82.69
67.56
54.71
44.09
35.21
27.47
20.37
13.64
7.18
1.00
-4.86
-10.33
-15.30
-19.65
-23.25
-26.08
-28.20
-29.83
-31.31
-33.02
-35.28
-38.29
-42.02
-46.22
-50.55
-54.68
-58.58
-62.44
-66.71
-71.74
-77.55
-83.48
-88.27
-90.21
-87.61
-79.24
-64.79
-44.99
-21.46
3.54
27.62
48.64
65.04
75.99
81.37
81.62
77.62
70.40
61.07
50.70
40.22
30.40
21.72
14.39
8.36
3.41
-0.66
-3.91
-6.32
-7.86
-8.57
-8.67
-8.56
-8.67
-9.42
-11.05
-13.62
-16.98
-20.87
-25.01
-29.16
-33.20
-37.16
-41.15
-45.28
-49.73
-54.65
-60.19
-66.47
-73.34
-80.26
-86.18
-89.68
-89.18
-83.44
-71.81
-54.53
-32.66
-7.90
17.64
41.77
62.42
77.95
87.28
90.08
86.81
78.63
67.21
54.34
41.59
30.12
20.60
13.23
7.95
4.50
2.51
1.52
1.04
0.64
0.07
-0.71
-1.59
-2.40
-3.11
-3.92
-5.19
-7.31
-10.53
-14.83
-19.92
-25.41
-30.87
-36.03
-40.85
-45.45
-50.09
-55.08
-60.69
-66.99
-73.72
-80.08
-84.78
-86.13
-82.38
-72.08
-54.59
-30.39
-1.22
30.08
60.04
85.28
103.27
112.83
114.20
108.75
98.46
85.29
70.85
56.35
42.68
30.50
20.26
12.05
5.65
0.52
-3.94
-8.17
-12.23
-15.87
-18.68
-20.29
-20.64
-19.98
-18.89
-18.09
-18.27
-19.89
-23.03
-27.48
-32.76
-38.35
-43.85
-49.14
-54.23
-59.24
-64.26
-69.38
-74.72
-80.43
-86.58
-92.82
-98.12
-100.71
-98.30
-88.73
-70.72
-44.42
-11.64
24.44
60.01
91.34
115.59
131.22
137.98
136.78
129.22
117.13
102.29
86.24
70.20
55.13
41.78
30.62
21.83
15.26
10.54
7.19
4.79
3.07
1.89
1.16
0.70
0.22
-0.65
-2.19
-4.55
-7.59
-11.05
-14.70
-18.52
-22.70
-27.69
-33.86
-41.41
-50.26
-60.09
-70.47
-80.98
-91.15
-100.31
-107.43
-111.10
-109.68
-101.75
-86.52
-64.18
-36.03
-4.23
28.56
59.69
86.93
108.68
124.08
132.90
135.36
131.99
123.46
110.59
94.33
75.79
56.29
37.28
20.23
6.52
-2.86
-7.40
-7.18
-3.04
3.62
10.93
16.98
20.19
19.73
15.70
9.01
1.06
-6.70
-13.25
-18.16
-21.66
-24.41
-27.24
-30.91
-35.90
-42.41
-50.40
-59.63
-69.75
-80.35
-90.93
-100.68
-108.46
-112.66
-111.43
-103.03
-86.42
-61.71
-30.36
5.01
41.15
74.81
103.38
125.18
139.45
146.20
145.98
139.79
129.03
115.42
100.80
86.92
75.13
66.24
60.54
58.01
58.54
62.04
68.36
77.21
87.94
99.67
111.35
122.09
131.36
139.05
145.46
151.12
156.61
162.41
168.72
175.55
182.78
190.40
198.58
207.45
216.70
224.98
229.84
228.19
217.22
195.52
163.60
123.72
79.24
33.74
-9.49
-47.60
-78.29
-99.98
-112.28
-116.35
-114.94
-111.66
-109.95
-111.99
-118.25
-127.70
-138.62
-149.36
-158.98
-167.27
-174.50
-181.01
-186.90
-192.04
-196.25
-199.56
-202.35
-205.26
-208.94
-213.70
-219.42
-225.57
-231.49
-236.73
-241.24
-245.48
-250.19
-256.25
-264.23
-274.24
-285.81
-297.98
-309.63
-319.79
-327.95
-334.03
-338.09
-339.72
-337.74
-330.24
-315.24
-291.58
-259.68
-221.73
-180.94
-140.58
-102.88
-68.51
-36.85
-6.57
23.71
55.12
88.45
123.99
161.04
197.57
230.22
255.09
269.13
271.46
263.89
250.31
235.25
222.27
213.05
207.45
204.22
201.95
199.57
196.33
191.56
184.55
174.61
161.31
144.75
125.50
104.56
82.97
61.65
41.29
22.34
5.03
-10.61
-24.81
-38.07
-51.14
-64.90
-80.16
-97.47
-116.71
-136.74
-155.21
-168.71
-173.52
-166.63
-146.86
-115.45
-75.85
-32.82
8.93
45.78
75.85
98.80
115.25
126.12
132.21
134.11
132.35
127.57
120.52
111.94
102.35
91.95
80.76
68.90
57.01
46.28
38.24
34.18
34.55
38.59
44.41
49.56
51.84
49.87
43.49
33.57
21.57
9.00
-2.99
-13.84
-23.44
-31.99
-39.73
-46.82
-53.41
-59.68
-66.10
-73.38
-82.20
-92.75
-104.13
-114.19
-119.84
-117.86
-106.00
-83.71
-52.39
-14.88
25.37
65.11
101.70
133.10
157.60
173.80
180.77
178.44
167.86
151.11
130.84
109.64
89.46
71.40
55.83
42.80
32.32
24.47
19.32
16.71
16.14
16.81
17.85
18.50
18.30
17.03
14.64
11.06
6.16
-0.22
-8.14
-17.41
-27.57
-37.90
-47.65
-56.29
-63.72
-70.36
-77.06
-84.83
-94.55
-106.53
-120.15
-133.58
-143.98
-148.01
-142.69
-126.38
-99.36
-63.96
-23.82
16.93
54.64
86.64
111.27
127.69
135.70
135.65
128.52
115.94
99.98
82.79
66.21
51.54
39.46
30.20
23.76
20.00
18.68
19.38
21.39
23.86
25.88
26.72
25.94
23.45
19.39
13.99
7.46
-0.01
-8.24
-16.98
-25.92
-34.71
-43.12
-51.01
-58.39
-65.47
-72.58
-80.23
-89.01
-99.31
-110.93
-122.68
-132.31
-136.87
-133.42
-119.98
-96.23
-63.71
-25.38
15.07
54.06
88.57
116.38
136.05
146.88
148.96
143.11
130.84
114.13
95.07
75.62
