--
64.000000
-0.00
-0.00
-0.00
-0.00
-0.00
-0.00
-0.00
-0.00
-0.00
-0.00
0.00
0.01
0.01
-0.00
-0.03
-0.05
-0.05
0.00
0.13
0.36
0.66
1.01
1.37
1.72
2.06
2.40
2.79
3.24
3.80
4.42
5.06
5.66
6.20
6.68
7.15
7.68
8.31
9.14
10.09
11.04
11.88
12.56
13.14
13.76
14.65
15.96
17.91
20.32
22.90
25.38
27.58
29.57
31.68
34.32
37.81
42.54
48.15
54.10
59.83
64.97
69.58
74.14
79.34
85.71
93.76
103.00
112.62
121.73
129.77
136.75
143.30
150.75
157.77
166.64
177.95
191.79
206.97
220.57
228.25
225.36
208.53
176.87
132.76
80.05
23.07
-34.94
-92.44
-149.16
-205.23
-260.37
-313.74
-363.87
-409.83
-450.91
-486.50
-515.74
-537.23
-549.22
-549.96
-538.37
-514.21
-478.67
-433.88
-382.45
-327.02
-269.84
-212.63
-156.66
-102.95
-52.37
-5.90
35.58
71.43
101.35
125.50
144.38
158.69
169.15
176.37
180.75
182.57
182.07
179.51
175.23
169.65
163.18
156.15
148.81
141.30
133.69
126.02
118.33
110.69
103.16
95.80
88.68
81.83
75.25
68.95
62.95
57.25
51.86
46.78
42.03
37.59
33.45
29.61
26.07
22.81
19.83
17.11
14.67
12.48
10.54
8.83
7.35
6.07
4.97
4.05
3.27
2.62
2.09
1.66
1.31
1.04
0.83
0.67
0.55
0.47
0.42
0.40
0.39
0.40
0.42
0.45
0.48
0.52
0.57
0.61
0.66
0.72
0.78
0.84
0.91
0.99
1.07
1.17
1.27
1.39
1.52
1.66
1.83
2.01
2.21
2.44
2.69
2.97
3.27
3.61
3.98
4.38
4.82
5.31
5.82
6.38
6.98
7.63
8.32
9.05
9.84
10.67
11.56
12.49
13.47
14.50
15.59
16.75
17.98
19.28
20.62
22.00
23.34
24.59
25.65
26.39
26.69
26.42
25.47
23.77
21.30
18.09
14.20
9.81
5.08
0.25
-4.46
-8.84
-12.68
-15.86
-18.28
-19.91
-20.77
-20.93
-20.52
-19.64
-18.41
-16.94
-15.31
-13.57
-11.75
-9.87
-7.95
-6.02
-4.08
-2.13
-0.15
1.87
3.96
6.16
8.55
11.03
13.58
16.20
18.87
21.62
24.47
27.46
30.67
34.24
37.97
41.75
45.54
49.28
52.98
56.70
60.53
64.67
69.36
74.33
79.40
84.42
89.27
93.86
98.18
102.31
106.43
110.81
115.03
118.76
121.63
123.21
123.02
120.48
114.82
104.74
93.25
81.19
68.96
56.60
44.01
31.12
18.06
5.25
-6.63
-16.74
-25.18
-32.19
-38.31
-44.26
-50.58
-57.31
-63.90
-69.26
-72.16
-72.25
-69.68
-65.23
-59.98
-54.67
-49.31
-42.90
-33.82
-20.38
-1.93
21.01
46.76
72.66
95.61
112.54
120.99
119.83
109.98
94.43
77.77
64.44
56.31
51.32
43.69
26.38
-5.37
-51.23
-105.36
-158.40
-201.07
-227.57
-237.21
-234.07
-225.02
-217.25
-216.09
-223.93
-239.92
-260.47
-280.34
-293.77
-295.68
-282.83
-254.55
-213.19
-164.10
-114.65
-72.39
-42.79
-27.41
-23.81
-26.99
-31.95
-35.74
-37.85
-39.07
-39.62
-38.31
-33.02
-22.41
-7.52
8.00
19.15
21.91
14.93
0.07
-18.77
-37.32
-52.53
-63.12
-69.25
-71.77
-71.37
-68.31
-62.39
-53.38
-41.37
-26.95
-11.21
4.54
19.10
31.67
41.90
49.84
55.65
59.49
61.40
61.37
59.56
56.36
52.47
48.71
45.85
44.23
43.64
43.34
42.36
39.96
35.90
30.64
25.17
20.66
18.03
17.54
18.79
20.74
22.20
22.09
19.77
15.16
8.62
0.83
-7.51
-15.68
-23.00
-28.80
-32.37
-33.17
-30.92
-25.82
-18.56
-10.12
-1.53
6.41
13.26
18.89
23.42
26.98
29.63
31.29
31.76
30.86
28.51
24.87
20.34
15.48
10.87
6.87
3.63
1.02
-1.20
-3.26
-5.31
-7.47
-9.84
-12.46
-15.14
-17.47
-18.94
-19.21
-18.31
-16.78
-15.39
-14.80
-15.14
-15.95
-16.36
-15.47
-12.79
-8.43
-3.06
2.40
7.10
10.59
12.91
14.51
16.17
18.57
22.15
26.91
32.45
38.18
43.46
47.76
50.73
52.29
52.49
51.54
49.75
47.43
44.89
42.30
39.76
37.28
34.90
32.71
30.88
29.56
28.71
28.07
27.25
26.03
24.48
23.10
22.52
23.20
25.03
27.22
28.51
27.47
22.94
14.33
1.60
-14.80
-34.09
-55.30
-77.31
-98.92
-118.93
-136.23
-149.94
-159.35
-164.04
-163.75
-158.47
-148.58
-134.86
-118.59
-101.22
-84.08
-67.77
-51.88
-35.12
-16.05
5.91
29.85
53.30
73.18
86.97
93.84
94.78
92.03
87.89
83.76
79.90
75.74
70.69
64.73
58.45
52.75
48.26
45.06
42.74
40.74
38.61
36.27
33.98
32.11
30.87
30.17
29.62
28.68
26.80
23.60
18.91
12.82
5.69
-1.86
-8.99
-14.83
-18.56
-19.70
-18.14
-14.14
-8.22
-1.07
6.50
13.68
19.71
24.05
26.40
26.80
25.63
23.47
20.96
18.63
16.73
15.28
14.11
13.01
11.80
10.38
8.74
6.96
5.13
3.41
1.91
0.74
-0.17
-1.00
-1.97
-3.29
-5.04
-7.19
-9.61
-12.28
-15.24
-18.54
-22.12
-25.76
-29.13
-32.00
-34.37
-36.63
-39.25
-42.51
-46.15
-49.37
-51.11
-50.47
-47.19
-41.71
-34.93
-27.88
-21.25
-15.32
-10.05
-5.38
-1.50
1.12
1.79
-0.05
-4.60
-11.57
-20.14
-29.08
-37.03
-42.82
-45.81
-46.00
-44.22
-41.89
-40.80
-42.36
-47.00
-53.72
-60.14
-63.23
-60.25
-49.78
-32.16
-9.41
15.53
39.66
60.65
77.19
88.74
95.14
96.26
91.85
81.73
66.30
47.00
26.61
8.96
-2.14
-4.27
2.59
15.91
31.44
44.94
53.56
56.74
55.95
53.57
51.75
51.62
53.23
56.12
59.94
64.75
70.89
78.65
87.87
97.92
107.86
116.71
123.58
127.80
128.94
126.77
121.34
112.85
101.63
88.00
72.35
55.18
37.36
19.99
4.14
-9.46
-20.84
-30.69
-40.09
-50.02
-61.00
-72.96
-85.42
-97.69
-108.98
-118.47
-125.37
-129.03
-129.07
-125.52
-118.82
-109.70
-98.93
-87.18
-74.96
-62.73
-51.08
-40.60
-31.65
-24.27
-18.10
-12.85
-8.61
-6.05
-5.87
-7.96
-10.59
-10.25
-2.78
14.97
43.50
80.11
119.73
156.78
187.07
208.69
221.98
228.58
230.32
228.55
224.00
216.95
207.51
195.67
181.22
163.56
141.85
115.25
83.49
47.35
8.98
-28.38
-61.02
-85.83
-101.18
-107.37
-106.52
-101.94
-97.17
-94.82
-95.88
-99.41
-103.11
-104.39
-101.46
-94.17
-83.83
-72.47
-61.90
-53.02
-45.97
-40.72
-37.66
-37.58
-41.22
-48.58
-58.51
-68.99
-77.80
-83.40
-85.44
-84.88
-83.63
-83.97
-87.87
-96.37
-109.20
-124.84
-141.00
-155.20
-165.64
-171.55
-173.37
-172.48
-170.69
-169.74
-170.90
-174.65
-180.61
-187.65
-194.21
-198.78
-200.38
-198.80
-194.48
-187.84
-178.67
-165.67
-146.84
-120.35
-85.74
-44.55
-0.29
42.62
80.31
110.76
134.15
152.39
168.03
183.13
198.67
214.48
229.66
243.02
253.40
259.68
260.88
256.36
246.08
230.95
212.73
193.68
175.86
160.69
148.81
140.19
134.48
131.08
129.16
127.51
124.58
118.83
109.22
95.66
79.05
61.25
44.49
30.96
22.30
19.22
21.43
27.69
36.34
45.63
54.75
64.33
75.59
89.56
106.62
126.31
147.52
169.04
189.65
208.45
224.92
238.12
246.50
248.57
243.47
231.41
214.14
194.01
174.19
158.76
150.51
149.93
155.47
163.87
171.04
173.47
168.15
155.05
139.14
124.93
113.67
103.55
90.16
68.39
35.03
-12.12
-70.65
-129.78
-180.81
-220.92
-250.39
-271.75
-288.51
-304.06
-325.75
-358.70
-396.21
-431.21
-458.72
-472.02
-466.07
-441.07
-403.92
-372.34
-362.86
-374.33
-401.52
-439.54
-480.55
-517.91
-548.41
-534.41
-455.34
-370.87
-305.44
-245.70
-189.95
-140.33
-101.55
-78.83
-75.78
-99.01
-149.95
-213.40
-274.61
-324.48
-355.04
-361.88
-345.65
-311.54
-271.79
-236.93
-204.73
-172.27
-139.85
-107.46
-75.98
-47.16
-22.35
-4.33
6.49
16.70
30.76
48.26
67.41
85.60
100.67
111.80
118.31
120.94
123.63
128.88
136.46
145.32
154.12
161.93
168.65
174.46
180.01
186.86
195.80
206.36
217.72
229.10
240.05
250.68
261.68
274.18
289.39
308.05
329.60
351.85
371.12
383.23
384.90
374.91
354.53
326.94
295.94
264.64
234.80
206.89
180.75
156.18
133.22
111.92
92.20
73.82
56.58
40.76
27.22
17.16
11.61
10.90
14.24
19.98
26.11
30.86
33.34
33.64
32.55
31.13
30.13
29.79
29.87
29.78
28.93
27.00
23.95
19.91
15.16
9.98
4.67
-0.42
-4.90
-8.39
-10.70
-11.99
-12.83
-13.95
-15.99
-19.16
-23.09
-26.99
-30.07
-31.84
-32.41
-32.39
-32.61
-33.79
-36.33
-40.23
-45.17
-50.58
-55.73
-59.79
-61.84
-61.14
-57.28
-50.41
-41.31
-31.25
-21.62
-13.39
-6.86
-1.45
3.82
9.88
17.06
24.92
32.40
38.31
41.81
42.58
40.75
36.67
30.73
23.31
14.90
6.22
-1.80
-8.11
-11.84
-12.60
-10.57
-6.54
-1.63
2.93
6.10
7.20
5.85
2.02
-4.10
-12.08
-21.23
-30.62
-39.27
-46.25
-51.06
-53.65
-54.50
-54.25
-53.41
-52.12
-50.01
-46.47
-40.93
-33.18
-23.62
-13.12
-2.81
6.23
13.31
18.16
20.96
22.16
22.37
22.22
22.26
22.83
24.05
25.79
27.71
29.33
30.20
29.98
28.49
25.79
22.06
17.66
13.00
8.47
4.44
1.19
-1.11
-2.53
-3.28
-3.73
-4.31
-5.34
-7.01
-9.28
-11.91
-14.53
-16.78
-18.44
-19.58
-20.58
-22.00
-24.31
-27.65
-31.55
-34.85
-36.08
-33.86
-27.45
-17.12
-4.14
9.60
22.19
32.24
39.29
43.72
46.54
48.84
51.51
54.95
58.94
62.53
64.17
61.92
54.06
39.85
20.16
-2.42
-24.09
-41.11
-50.91
-53.03
-48.98
-41.53
-33.48
-26.83
-22.37
-19.80
-18.39
-17.33
-16.17
-14.78
-13.30
-12.11
-11.78
-13.15
-17.24
-24.93
-36.62
-51.70
-68.41
-84.09
-95.63
-100.32
-96.60
-84.49
-65.54
-42.47
-18.47
3.55
21.48
34.37
42.39
46.49
48.00
48.23
48.13
48.14
48.04
47.01
43.84
37.34
27.00
13.32
-2.05
-16.75
-28.15
-34.34
-34.72
-30.04
-22.03
-12.85
-4.41
1.86
4.94
4.73
1.87
-2.46
-6.91
-10.19
-11.52
-10.52
-7.48
-3.31
1.24
5.37
8.14
8.63
6.45
1.70
-4.18
-9.42
-12.55
-11.37
-4.66
6.98
21.18
35.14
45.91
53.22
57.72
60.11
63.64
71.15
82.66
95.20
104.94
107.42
103.13
94.20
82.81
75.27
77.44
90.42
110.04
129.59
139.99
139.23
128.31
110.31
96.57
100.57
130.51
186.65
263.56
349.77
440.39
532.68
585.48
569.70
484.99
360.24
231.31
145.56
90.40
48.28
7.26
-37.12
-89.47
-143.09
-192.99
-238.76
-281.62
-324.57
-361.27
-384.01
-388.66
-372.75
-337.43
-293.42
-255.35
-231.88
-224.05
-221.69
-215.12
-200.70
-178.14
-149.26
-118.58
-91.20
-71.21
-62.52
-62.95
-68.99
-75.02
-73.02
-54.93
-18.01
33.37
87.86
130.33
149.75
142.72
115.11
79.17
48.71
32.60
34.77
51.37
73.27
91.88
102.51
105.23
101.21
92.03
77.66
56.59
26.94
-11.12
-54.47
-97.98
-136.40
-168.20
-192.52
-208.52
-216.02
-216.79
-214.37
-213.12
-216.70
-226.39
-242.97
-262.84
-279.36
-286.45
-281.85
-267.26
-247.17
-227.03
-194.54
-150.39
-104.69
-68.03
-42.96
-24.82
-7.20
13.35
36.50
59.67
77.99
90.66
101.25
114.08
128.78
142.55
150.11
147.18
133.20
109.63
81.69
56.41
39.19
31.68
32.27
37.82
45.29
52.19
56.15
54.20
44.41
26.30
1.13
-27.57
-53.71
-70.58
-73.51
-62.78
-42.67
-19.61
-0.72
7.55
0.61
-21.66
-56.28
-98.86
-144.99
-189.79
-227.37
-252.07
-259.77
-248.74
-216.48
-162.20
-89.44
-7.33
71.44
134.36
172.09
181.11
164.75
137.13
116.91
119.87
153.33
215.93
300.15
394.68
487.30
544.62
539.76
470.54
363.66
253.36
161.36
93.85
47.85
20.79
6.90
7.84
26.19
59.63
99.26
133.83
155.63
158.88
145.14
118.91
88.07
58.31
30.63
1.89
-31.28
-69.23
-109.35
-147.23
-179.61
-202.42
-212.67
-209.69
-195.43
-173.62
-148.47
-123.95
-102.68
-85.97
-72.12
-57.94
-40.99
-20.94
-0.06
17.34
25.93
21.33
1.43
-31.41
-70.47
-106.61
-131.03
-138.69
-130.43
-113.17
-96.70
-89.39
-94.00
-106.42
-118.41
-120.41
-105.99
-74.40
-31.00
15.19
54.47
79.14
85.19
71.68
43.08
7.97
-24.24
-47.54
-61.57
-70.90
-81.93
-98.98
-124.30
-154.20
-181.24
-197.90
-199.92
-186.98
-162.10
-131.38
-103.29
-89.66
-96.98
-122.52
-154.76
-179.20
-185.39
-171.88
-146.86
-103.42
-47.48
9.12
58.82
103.92
149.65
196.38
239.30
272.90
294.78
303.40
300.17
286.75
265.02
237.34
208.18
184.24
171.76
173.01
181.45
187.92
180.64
150.78
96.53
24.55
-52.63
-122.25
-176.43
-215.35
-243.08
-262.31
-270.67
-262.15
-231.19
-176.94
-104.69
-24.35
52.13
113.56
152.12
164.61
151.96
118.76
73.25
26.85
-8.40
-24.69
-23.34
-13.23
-5.36
-7.19
-19.79
-38.28
-54.89
-62.84
-59.76
-51.09
-46.05
-52.17
-72.04
-103.44
-141.00
-177.83
-207.37
-210.41
-176.61
-114.55
-47.38
5.45
38.91
58.77
72.54
83.49
89.54
84.09
62.88
29.30
-5.91
-32.80
-45.42
-45.48
-39.76
-35.83
-39.66
-52.52
-69.67
-82.34
-84.15
-75.09
-61.69
-53.01
-56.14
-73.45
-103.50
-139.38
-169.44
-182.46
-171.49
-136.14
-81.93
-18.49
41.77
86.24
108.60
113.22
112.02
118.90
143.34
187.83
248.85
319.12
389.85
436.80
440.37
395.98
317.31
223.66
128.01
36.05
-42.93
-110.20
-161.30
-186.41
-177.75
-135.06
-67.13
9.66
78.77
128.69
154.54
160.05
154.60
147.01
141.46
136.31
126.62
107.92
77.90
35.76
-16.13
-72.55
-126.67
-171.48
-201.31
-212.97
-205.76
-181.47
-144.50
-100.12
-54.55
-14.37
14.64
28.77
27.38
13.58
-6.15
-23.74
-30.88
-21.60
7.79
58.79
129.48
213.14
298.12
370.02
415.76
428.31
407.66
361.52
302.22
240.51
180.35
119.13
52.50
-19.65
-90.67
-151.87
-196.34
-222.30
-234.83
-243.02
-253.68
-266.81
-275.60
-259.75
-209.95
-137.47
-68.38
-25.73
-16.34
-30.70
-52.23
-67.04
-69.85
-66.10
-68.66
-82.43
-105.85
-133.48
-157.87
-173.04
-176.72
-170.61
-160.64
-152.89
-149.93
-145.39
-135.35
-117.74
-93.37
-65.83
-40.06
-21.18
-11.60
-9.28
-9.61
-8.71
-4.33
3.10
11.33
18.03
21.68
22.66
23.17
25.56
30.44
37.24
44.48
50.57
54.52
55.98
55.16
52.75
49.35
44.93
39.51
33.13
25.97
18.38
10.99
4.60
0.22
-1.29
0.37
5.13
12.40
21.26
30.63
39.49
47.02
52.71
56.25
57.44
56.31
53.04
48.02
41.75
34.98
28.49
23.03
19.14
16.99
16.41
16.97
18.21
19.68
21.11
22.28
23.05
23.24
22.66
21.18
18.77
15.49
11.53
7.12
2.50
-2.15
-6.69
-11.06
-15.30
-19.58
-24.07
-28.79
-33.52
-37.71
-40.61
-41.45
-39.69
-35.11
-27.85
-18.36
-7.28
4.59
16.29
26.89
35.59
41.93
45.90
47.85
48.26
47.49
45.58
42.35
37.62
31.50
24.39
17.05
10.24
4.60
0.41
-2.38
-4.08
-5.05
-5.59
-5.92
-6.16
-6.43
-6.92
-7.83
-9.35
-11.48
-14.06
-16.84
-19.61
-22.40
-25.41
-28.93
-33.10
-37.71
-42.20
-45.76
-47.58
-47.11
-44.08
-38.52
-30.70
-21.01
-9.94
1.92
13.89
25.15
34.84
42.08
46.16
46.75
44.11
39.09
32.93
26.98
22.24
19.11
17.36
16.39
15.47
14.08
12.00
9.31
6.30
3.35
0.80
-1.10
-2.32
-3.06
-3.67
-4.61
-6.26
-8.80
-12.21
-16.25
-20.61
-25.06
-29.47
-33.88
-38.37
-42.98
-47.53
-51.49
-54.06
-54.28
-51.37
-44.95
-35.28
-23.25
-10.17
2.64
14.14
23.74
31.30
36.87
40.57
42.39
42.28
40.26
36.51
31.43
25.52
19.32
13.37
8.19
4.25
1.87
1.11
1.69
3.06
4.51
5.40
5.25
3.79
0.99
-3.05
-8.03
-13.47
-18.87
-23.77
-28.04
-31.87
-35.84
-40.62
-46.66
-53.88
-61.56
-68.41
-72.93
-73.82
-70.33
-62.42
-50.69
-36.23
-20.25
-3.94
11.62
25.60
37.32
46.34
52.48
55.76
56.50
55.09
52.04
47.81
42.85
37.54
32.20
27.17
22.74
19.26
16.91
15.78
15.70
16.31
17.14
17.69
17.62
16.78
15.15
12.84
9.99
6.65
2.81
-1.65
-6.86
-12.90
-19.84
-27.62
-36.08
-44.80
-53.07
-59.86
-64.00
-64.40
-60.39
-51.98
-39.95
-25.61
-10.46
4.16
17.28
28.30
36.89
42.82
45.95
46.30
44.07
39.80
34.27
28.26
22.39
16.94
11.93
7.31
3.12
-0.42
-2.98
-4.24
-4.17
-3.02
-1.31
0.35
1.33
1.21
-0.30
-3.27
-7.57
-12.80
-18.41
-23.90
-28.95
-33.61
-38.22
-43.15
-48.51
-53.88
-58.32
-60.62
-59.60
-54.50
-45.18
-32.11
-16.35
0.77
17.77
33.27
46.16
55.70
61.57
63.84
62.98
59.79
55.20
50.23
45.73
42.27
39.95
38.51
37.43
36.22
34.64
32.73
30.81
29.21
28.07
27.23
26.30
24.75
22.23
18.63
14.09
8.91
3.38
-2.33
-8.16
-14.17
-20.44
-27.06
-34.02
-41.20
-48.19
-54.22
-58.29
-59.28
-56.29
-48.99
-37.64
-23.19
-6.95
9.58
25.05
38.42
49.00
56.55
61.07
62.83
62.21
59.67
55.75
50.99
45.88
40.86
36.18
31.93
28.10
24.69
21.80
19.59
18.21
17.69
17.85
18.29
18.45
17.79
15.94
12.83
8.69
4.02
-0.69
-5.11
-9.22
-13.33
-17.93
-23.50
-30.29
-38.17
-46.48
-54.16
-59.89
-62.35
-60.49
-53.86
-42.75
-28.19
-11.76
4.81
19.96
32.58
42.14
48.54
52.01
52.88
51.51
48.29
43.67
38.16
32.29
26.47
20.97
15.86
11.17
6.98
3.50
1.05
-0.13
0.04
1.29
3.10
4.74
5.55
5.07
3.12
-0.14
-4.31
-8.89
-13.42
-17.58
-21.35
-24.95
-28.75
-33.10
-38.08
-43.31
-47.97
-50.90
-50.95
-47.28
-39.64
-28.43
-14.67
0.28
14.98
28.17
38.92
46.75
51.53
53.48
53.05
50.76
47.06
42.32
36.79
30.64
24.12
17.54
11.32
5.94
1.72
-1.22
-2.99
-3.91
-4.37
-4.75
-5.30
-6.21
-7.58
-9.48
-11.94
-14.85
-18.10
-21.52
-25.00
-28.53
-32.26
-36.42
-41.25
-46.88
-53.14
-59.58
-65.29
-69.18
-70.10
-67.19
-60.16
-49.32
-35.57
-20.13
-4.32
10.63
23.65
33.92
40.87
44.25
44.18
41.04
35.56
28.60
21.14
14.12
8.35
4.37
2.36
2.16
3.36
5.42
7.82
10.17
12.16
13.54
14.04
13.43
11.58
8.54
4.53
-0.05
-4.74
-9.13
-13.01
-16.40
-19.64
-23.21
-27.61
-33.10
-39.46
-45.90
-51.14
-53.74
-52.47
-46.64
-36.32
-22.27
-5.76
11.68
28.58
43.69
56.07
65.20
70.88
73.31
72.93
70.37
66.36
61.53
56.33
50.99
45.54
39.86
33.87
27.65
21.43
15.60
10.49
6.23
2.65
-0.61
-3.96
-7.66
-11.70
-15.82
-19.69
-23.05
-25.87
-28.34
-30.76
-33.49
-36.81
-40.90
-45.70
-50.92
-55.82
-59.29
-60.00
-56.87
-49.41
-37.96
-23.72
-8.26
6.90
20.72
32.71
42.86
51.21
57.79
62.42
64.93
65.30
63.77
60.76
56.78
52.20
47.26
42.14
37.12
32.54
28.86
26.38
25.16
24.93
25.20
25.42
25.14
24.07
22.09
19.17
15.32
10.69
5.54
0.29
-4.69
-9.20
-13.37
-17.59
-22.34
-27.99
-34.48
-41.31
-47.51
-51.90
-53.31
-50.89
-44.32
-33.88
-20.45
-5.28
10.19
24.66
37.11
46.92
53.79
57.70
58.82
57.50
54.19
49.50
44.04
38.44
33.13
28.35
24.11
20.38
17.10
14.35
12.25
10.96
10.47
10.63
11.05
11.34
11.12
10.21
8.62
6.51
4.10
1.62
-0.79
-3.07
-5.30
-7.72
-10.77
-14.96
-20.73
-28.12
-36.60
-45.01
-51.81
-55.50
-55.07
-50.30
-41.79
-30.69
-18.35
-5.99
5.43
15.23
22.94
28.26
31.04
31.38
29.60
26.27
22.06
17.59
13.33
9.57
6.40
3.80
1.73
0.14
-1.01
-1.72
-2.00
-1.91
-1.52
-0.91
-0.21
0.44
0.88
0.98
0.63
-0.16
-1.37
-2.93
-4.77
-6.94
-9.53
-12.67
-16.46
-20.84
-25.55
-30.14
-34.06
-36.66
-37.31
-35.56
-31.19
-24.33
-15.55
-5.70
4.15
13.00
20.01
24.66
26.78
26.50
24.14
20.27
15.53
10.56
5.89
1.81
-1.70
-4.87
-7.90
-10.93
-13.80
-16.20
-17.80
-18.33
-17.82
-16.49
-14.71
-12.87
-11.23
-9.96
-9.10
-8.69
-8.77
-9.44
-10.79
-12.84
-15.47
-18.51
-21.71
-24.83
-27.62
-29.80
-30.99
-30.75
-28.61
-24.26
-17.69
-9.22
0.45
10.45
19.89
28.01
34.29
38.48
40.49
40.41
38.50
35.18
30.99
26.60
22.61
19.47
17.31
15.96
14.99
13.96
12.52
10.56
8.20
5.70
3.31
1.24
-0.55
-2.17
-3.76
-5.46
-7.31
-9.29
-11.37
-13.52
-15.79
-18.27
-21.06
-24.22
-27.74
-31.50
-35.28
-38.75
-41.53
-43.12
-42.98
-40.60
-35.66
-28.24
-18.83
-8.30
2.30
12.00
20.13
26.32
30.46
32.56
32.67
30.99
27.84
23.66
18.97
14.26
9.86
5.99
2.71
-0.00
-2.23
-4.05
-5.50
-6.55
-7.12
-7.20
-6.92
-6.60
-6.66
-7.47
-9.13
-11.47
-14.14
-16.77
-19.23
-21.60
-24.09
-26.90
-30.07
-33.46
-36.78
-39.60
-41.40
-41.54
-39.43
-34.64
-27.15
-17.38
-6.23
5.17
15.70
24.51
31.12
35.43
37.62
38.00
36.95
34.82
31.95
28.67
25.29
22.09
19.24
16.79
14.67
12.69
10.72
8.67
6.68
4.92
3.60
2.71
2.08
1.41
0.40
-1.15
-3.30
-5.97
-9.00
-12.21
-15.46
-18.63
-21.77
-24.97
-28.36
-32.04
-35.84
-39.33
-41.74
-42.18
-39.93
-34.66
-26.60
-16.46
-5.26
5.93
16.18
24.78
31.29
35.56
37.67
37.92
36.78
34.72
32.17
29.36
26.36
23.17
19.82
16.46
13.35
10.70
8.57
6.85
5.33
3.83
2.26
0.64
-1.02
-2.85
-5.04
-7.80
-11.13
-14.86
-18.64
-22.19
-25.45
-28.62
-32.00
-35.84
-40.17
-44.73
-49.04
-52.45
-54.19
-53.52
-49.86
-43.00
-33.23
-21.40
-8.68
3.61
14.39
22.97
29.17
33.12
35.18
35.73
35.10
33.54
31.26
28.44
25.22
21.76
18.17
14.58
11.07
7.76
4.74
2.12
-0.01
-1.58
-2.69
-3.58
-4.59
-6.10
-8.28
-11.06
-14.17
-17.23
-19.97
-22.44
-24.96
-27.98
-31.89
-36.76
-42.28
-47.82
-52.53
-55.47
-55.82
-53.05
-46.99
-37.99
-26.81
-14.42
-1.85
10.02
20.57
29.40
36.29
41.13
43.86
44.58
43.53
41.05
37.60
33.68
29.76
26.20
23.24
20.93
19.21
17.91
16.79
15.68
14.44
13.05
11.55
10.01
8.42
6.66
4.56
1.96
-1.15
-4.68
-8.42
-12.26
-16.25
-20.56
-25.44
-30.94
-36.88
-42.72
-47.74
-51.13
-52.09
-50.01
-44.64
-36.21
-25.46
-13.54
-1.73
8.82
17.43
23.86
28.24
30.83
31.84
31.45
29.78
27.12
23.82
20.34
17.01
13.98
11.24
8.71
6.38
4.40
3.04
2.50
2.80
3.71
4.76
5.42
5.27
4.07
1.81
-1.36
-5.13
-9.16
-13.15
-16.92
-20.49
-24.03
-27.82
-32.05
-36.60
-41.05
-44.59
-46.30
-45.29
-41.06
-33.51
-23.14
-10.90
2.02
14.40
25.28
34.12
40.79
45.48
48.55
50.31
50.95
50.55
49.11
46.67
43.35
39.40
35.03
30.46
25.91
21.55
17.58
14.20
11.54
9.54
8.00
6.57
4.88
2.74
0.14
-2.74
-5.64
-8.37
-10.89
-13.32
-15.90
-18.93
-22.66
-27.25
-32.68
-38.60
-44.35
-48.98
-51.42
-50.80
-46.69
-39.27
-29.29
-17.82
-5.94
5.46
15.78
24.69
31.90
37.20
40.42
41.58
40.94
38.92
36.01
32.62
29.03
25.38
21.79
18.42
15.43
12.92
10.84
9.07
7.40
5.73
4.03
2.37
0.78
-0.71
-2.18
-3.72
-5.42
-7.40
-9.75
-12.61
-16.03
-20.04
-24.54
-29.33
-34.24
-39.03
-43.48
-47.28
-49.90
-50.71
-49.12
-44.74
-37.65
-28.32
-17.58
-6.37
4.47
14.33
22.79
29.56
34.39
37.09
37.63
36.18
33.19
29.29
25.12
21.19
17.81
15.01
12.76
10.96
9.58
8.66
8.25
8.40
9.01
9.87
10.63
10.92
10.44
9.04
6.75
3.78
0.37
-3.23
-6.87
-10.43
-13.83
-17.05
-20.10
-23.05
-26.02
-28.96
-31.61
-33.41
-33.62
-31.49
-26.57
-18.84
-8.83
2.49
13.95
24.38
32.86
38.84
42.14
42.95
41.65
38.73
34.74
30.21
25.63
21.41
17.81
14.92
12.59
10.52
8.33
5.83
3.05
0.23
-2.23
-4.08
-5.36
-6.38
-7.67
-9.73
-12.84
-16.96
-21.81
-26.86
-31.69
-36.04
-39.90
-43.52
-47.30
-51.53
-56.20
-60.82
-64.48
-66.01
-64.34
-58.83
-49.46
-36.89
-22.28
-7.08
7.24
19.56
29.18
35.90
39.94
41.73
41.74
40.35
37.89
34.63
30.87
26.93
23.10
19.72
17.01
15.16
14.30
14.40
15.25
16.39
17.25
17.28
16.13
13.72
10.24
6.03
1.52
-2.91
-6.98
-10.58
-13.79
-16.80
-19.96
-23.57
-27.80
-32.59
-37.57
-42.13
-45.48
-46.85
-45.57
-41.24
-33.79
-23.60
-11.39
1.83
14.97
27.00
37.18
44.98
50.17
52.73
52.80
50.73
47.05
42.47
37.72
33.36
29.74
26.91
24.69
22.84
21.13
19.47
17.89
16.48
15.35
14.51
13.78
12.89
11.47
9.26
6.21
2.41
-1.90
-6.46
-11.02
-15.42
-19.56
-23.48
-27.41
-31.62
-36.29
-41.22
-45.66
-48.45
-48.36
-44.55
-36.98
-26.39
-14.03
-1.31
10.62
21.00
29.40
35.66
39.79
41.97
42.49
41.77
40.14
37.87
35.04
31.64
27.76
23.63
19.62
16.17
13.56
11.85
10.88
10.39
10.10
9.81
9.38
8.65
7.42
5.49
2.71
-0.84
-4.90
-9.04
-12.86
-16.14
-18.93
-21.54
-24.42
-27.93
-32.11
-36.62
-40.78
-43.68
-44.55
-42.87
-38.54
-31.85
-23.37
-13.78
-3.83
5.87
14.79
22.48
28.61
32.90
35.25
35.69
34.42
31.81
28.35
24.51
20.69
17.16
14.03
11.32
9.04
7.15
5.65
4.53
3.79
3.36
3.14
2.98
2.69
2.05
0.87
-0.93
-3.35
-6.22
-9.31
-12.35
-15.14
-17.65
-20.04
-22.56
-25.50
-28.98
-32.87
-36.74
-39.87
-41.41
-40.63
-36.99
-30.45
-21.40
-10.64
0.79
11.85
21.62
29.45
34.96
38.08
38.97
37.98
35.61
32.43
28.88
25.33
21.92
18.64
15.46
12.34
9.31
6.49
4.00
1.93
0.31
-0.88
-1.78
-2.56
-3.42
-4.58
-6.20
-8.28
-10.75
-13.40
-16.07
-18.64
-21.11
-23.66
-26.55
-30.06
-34.32
-39.19
-44.24
-48.75
-51.89
-52.81
-50.96
-46.11
-38.43
-28.41
-16.80
-4.48
7.65
18.72
28.08
35.29
40.21
42.91
43.66
42.77
40.59
37.48
33.75
29.70
25.57
21.55
17.78
14.41
11.59
9.47
8.12
7.45
7.21
6.96
6.27
4.76
2.32
-0.99
-4.87
-8.98
-13.03
-16.89
-20.56
-24.21
-28.08
-32.38
-37.29
-42.79
-48.66
-54.38
-59.14
-62.04
-62.22
-59.09
-52.53
-42.94
-31.06
-17.90
-4.46
8.32
19.63
28.88
35.68
39.86
41.55
41.07
38.93
35.70
31.85
27.73
23.52
19.24
14.86
10.44
6.20
2.50
-0.26
-1.79
-2.05
-1.37
-0.30
0.51
0.55
-0.55
-2.84
-6.18
-10.31
-14.91
-19.73
-24.58
-29.43
-34.27
-39.15
-44.13
-49.14
-53.99
-58.27
-61.30
-62.20
-60.04
-54.17
-44.44
-31.49
-16.57
-1.31
12.78
24.67
33.98
40.83
45.60
48.69
50.32
50.55
49.40
46.99
43.51
39.24
34.47
29.48
24.61
20.20
16.71
14.51
13.75
14.23
15.37
16.29
16.11
14.18
10.31
4.84
-1.49
-7.75
-13.11
-17.21
-20.21
-22.84
-26.13
-31.00
-37.91
-46.64
-56.20
-65.09
-71.62
-74.40
-72.73
-66.88
-57.90
-47.30
-36.64
-26.80
-17.78
-8.63
2.24
16.19
33.43
52.49
70.46
83.96
90.39
88.92
80.62
67.97
53.94
41.23
31.70
26.15
24.17
24.13
23.41
19.14
9.10
-7.32
-28.65
-51.83
-73.20
-89.45
-98.34
-98.69
-90.28
-73.70
-50.90
-24.95
0.13
20.28
32.68
36.57
33.36
25.85
17.13
9.41
3.63
-0.46
-3.68
-6.74
-9.90
-12.99
-15.62
-17.51
-18.66
-19.43
-20.32
-21.63
-23.19
-24.20
-23.32
-18.98
-9.90
4.37
22.99
43.78
63.49
78.71
86.94
87.52
82.03
73.91
67.41
66.13
71.74
83.28
97.62
110.57
118.42
119.16
112.88
101.29
86.69
70.79
54.18
36.40
16.64
-5.30
-28.47
-50.77
-69.47
-82.13
-87.27
-84.71
-75.31
-60.42
-41.33
-19.09
5.16
29.70
52.05
69.32
79.10
80.39
74.04
62.40
48.44
34.71
22.73
12.95
5.14
-1.08
-5.91
-9.24
-10.81
-10.48
-8.43
-5.26
-1.89
0.73
1.87
1.26
-0.87
-3.96
-7.36
-10.63
-13.70
-16.76
-20.10
-23.84
-27.92
-32.06
-35.97
-39.43
-42.38
-44.85
-46.98
-48.95
-50.97
-53.32
-56.22
-59.71
-63.46
-66.71
-68.37
-67.36
-62.93
-54.88
-43.71
-30.45
-16.41
-2.90
9.01
18.64
25.68
30.12
32.23
32.42
31.20
29.08
26.46
23.63
20.73
17.84
15.01
12.40
10.18
8.54
7.53
7.00
6.70
6.38
5.92
5.33
4.67
3.98
3.10
1.81
-0.13
-2.78
-5.97
-9.33
-12.49
-15.28
-17.82
-20.42
-23.44
-26.99
-30.83
-34.38
-36.87
-37.62
-36.17
-32.42
-26.54
-18.91
-10.02
-0.43
9.19
18.17
25.81
31.56
35.09
36.37
35.68
33.49
30.40
26.92
23.47
20.23
17.20
14.27
11.35
8.47
5.80
3.61
2.09
1.34
1.22
1.44
1.69
1.66
1.10
-0.11
-2.00
-4.50
-7.40
-10.41
-13.29
-15.91
-18.35
-20.87
-23.78
-27.31
-31.44
-35.88
-40.09
-43.42
-45.20
-44.94
-42.35
-37.36
-30.16
-21.15
-10.85
0.11
11.06
21.29
30.10
36.82
40.98
42.39
41.22
38.05
33.72
29.08
24.81
21.25
18.40
16.03
13.95
12.11
10.65
9.77
9.55
9.84
10.16
10.01
9.00
7.16
4.91
3.07
2.60
4.39
8.98
16.32
25.53
34.88
41.98
44.29
39.89
28.15
10.23
-11.14
-32.37
-50.15
-62.45
-69.05
-71.38
-71.69
-72.08
-73.62
-76.15
-78.63
-79.91
-79.36
-77.09
-73.51
-68.74
-62.19
-52.79
-39.83
-23.82
-6.73
8.68
20.29
27.74
32.86
38.77
48.43
63.04
81.55
101.12
118.41
130.92
137.72
139.42
137.51
133.66
129.11
124.49
119.98
115.50
111.14
107.11
103.65
100.71
97.65
93.44
87.03
77.90
66.55
54.46
43.70
36.22
33.08
34.06
37.69
41.67
43.69
42.08
36.39
27.62
17.80
9.35
4.07
2.49
3.73
5.98
7.41
7.00
5.03
2.84
2.34
5.19
12.33
23.59
37.56
51.76
62.79
67.07
61.79
46.01
21.37
-7.96
-36.30
-57.97
-68.79
-66.93
-53.08
-30.01
-1.72
27.14
52.05
69.27
76.41
72.69
58.90
37.25
11.23
-14.62
-35.14
-45.30
-41.43
-22.59
8.60
46.30
82.87
111.13
126.23
126.65
114.00
92.07
65.63
39.35
17.05
1.35
-6.55
-6.79
-1.00
7.88
15.85
18.63
13.33
-0.04
-17.73
-32.96
-38.38
-29.41
-6.73
23.30
50.98
66.92
65.68
47.57
18.22
-13.53
-38.62
-50.77
-47.33
-30.94
-8.20
12.63
24.51
24.07
12.32
-6.57
-28.16
-48.87
-67.85
-85.75
-103.15
-119.69
-134.18
-145.76
-154.76
-163.48
-173.14
-185.37
-200.98
-220.29
-243.76
-271.86
-304.14
-337.91
-369.86
-390.22
-392.40
-373.13
-333.95
-280.44
-219.38
-155.45
-89.25
-22.96
50.46
128.97
204.77
265.96
301.04
303.69
275.13
223.33
152.65
82.69
23.43
-17.96
-37.55
-35.32
-15.71
12.69
39.35
45.60
36.26
11.15
-26.29
-71.85
-123.04
-179.36
-240.73
-245.64
-261.28
-267.27
-255.34
-222.45
-172.93
-117.59
-69.53
-39.08
-29.99
-48.53
-77.72
-110.96
-144.80
-178.98
-214.05
-248.99
-280.38
-303.75
-323.48
-332.29
-333.62
-331.62
-328.79
-324.71
-316.83
-302.25
-279.62
-254.47
-224.70
-193.32
-162.25
-131.41
-99.16
-63.23
-21.57
27.22
81.64
143.86
211.81
280.83
343.89
393.16
422.79
431.97
426.21
414.79
409.00
414.36
428.77
443.82
448.82
435.78
402.92
355.34
302.44
253.38
213.06
181.04
153.51
126.44
97.71
67.94
39.45
14.63
-3.60
-13.56
-16.33
-14.39
-8.77
0.85
13.97
27.81
38.19
41.83
38.33
31.05
26.25
30.23
45.28
68.29
90.49
101.92
95.57
70.55
33.20
-4.78
-30.99
-37.88
-26.11
-3.98
17.06
27.61
23.89
8.22
-14.58
-37.70
-54.92
-62.81
-61.66
-54.94
-47.60
-44.12
-46.76
-54.26
-61.66
-62.35
-51.39
-28.86
-0.80
23.43
36.36
37.24
33.36
36.74
57.07
95.29
141.97
180.66
196.49
184.07
150.29
110.74
82.55
77.10
96.36
133.49
175.13
208.80
227.42
229.59
217.04
192.64
159.85
123.43
89.80
61.83
41.74
31.17
29.29
30.86
27.35
10.85
-22.06
-68.56
-126.60
-188.95
-242.80
-274.23
-275.78
-250.32
-209.42
-168.89
-143.45
-150.84
-198.98
-281.60
-382.30
-484.91
-580.21
-666.32
-745.51
-766.86
-700.99
-559.34
-383.95
-212.51
-64.56
52.29
136.47
191.22
224.11
236.66
231.61
215.26
195.93
179.09
166.42
158.00
154.13
155.31
155.05
147.75
132.89
114.66
97.71
84.63
76.17
72.17
72.13
71.38
66.53
57.61
48.87
44.47
46.77
56.58
73.46
95.35
116.22
128.86
127.33
108.98
75.01
30.36
-17.23
-60.09
-93.69
-119.10
-141.28
-165.52
-193.89
-223.64
-248.05
-259.28
-252.47
-228.39
-193.32
-156.15
-124.45
-101.65
-86.05
-74.21
-62.02
-46.35
-25.73
0.49
32.86
71.55
114.56
156.21
187.54
200.19
190.46
162.24
126.34
96.00
81.50
86.67
109.27
144.11
186.51
233.06
280.06
321.35
348.20
352.11
328.64
279.83
213.28
139.04
66.21
1.15
-52.23
-91.34
-114.31
-120.42
-110.91
-88.99
-58.63
-22.48
19.44
69.17
128.23
194.87
262.44
320.61
359.01
371.41
358.39
326.99
287.54
249.22
216.55
188.53
160.80
129.10
92.15
52.53
15.02
-15.93
-38.56
-54.59
-68.35
-85.01
-108.85
-142.32
-185.80
-237.72
-294.47
-350.32
-397.59
-427.91
-434.64
-415.87
-376.86
-329.37
-287.96
-264.05
-261.13
-273.51
-289.78
-298.89
-295.38
-280.87
-261.25
-241.84
-223.65
-203.28
-176.05
-139.83
-97.11
-53.53
-14.43
18.53
48.00
78.79
114.39
153.78
190.95
217.01
224.49
210.99
180.78
143.00
107.79
82.17
67.91
62.32
60.84
59.72
57.19
52.91
46.77
38.45
28.01
16.75
7.05
0.60
-3.52
-9.63
-23.78
-50.34
-88.89
-133.41
-174.43
-202.86
-213.46
-206.10
-184.54
-153.82
-117.85
-78.66
-37.35
4.28
42.81
73.89
94.03
102.38
101.14
94.17
84.44
72.30
55.29
30.33
-3.25
-41.72
-77.21
-100.14
-103.15
-84.04
-46.46
1.47
49.63
88.16
109.02
107.30
82.59
39.26
-14.02
-65.98
-105.71
-125.79
-124.29
-104.79
-74.12
-38.58
-2.42
31.97
62.47
85.48
95.90
89.02
63.68
24.79
-15.24
-42.55
-48.02
-31.64
-2.24
27.08
45.23
47.93
38.92
30.60
34.22
53.94
85.76
121.56
154.42
181.80
205.55
229.87
264.05
312.55
371.95
432.24
482.19
514.41
527.06
523.34
509.88
501.68
510.02
537.60
577.86
620.08
654.93
677.04
685.69
637.73
515.99
335.99
137.57
-43.94
-194.51
-316.11
-414.54
-492.48
-549.53
-577.90
-575.92
-550.04
-511.80
-472.26
-437.83
-410.59
-390.28
-377.19
-367.25
-358.78
-353.11
-353.15
-359.66
-370.10
-380.36
-386.03
-385.46
-376.53
-360.04
-338.78
-315.59
-291.45
-265.26
-235.16
-198.25
-153.48
-100.76
-42.91
15.54
70.08
117.62
156.75
187.84
215.19
244.56
281.32
327.46
380.72
434.87
480.84
508.52
490.85
414.38
289.70
150.69
36.88
-25.93
-33.44
0.15
50.11
95.90
121.54
118.31
84.55
24.69
-51.45
-130.04
-196.88
-241.46
-258.53
-246.99
-213.09
-169.56
-132.02
-113.24
-118.21
-142.38
-174.19
-200.45
-211.84
-207.99
-197.95
-196.22
-215.49
-259.94
-322.97
-390.19
-445.70
-477.91
-482.95
-464.02
-427.96
-381.38
-328.57
-271.71
-212.47
-153.42
-98.14
-50.13
-11.34
18.71
42.66
63.92
84.96
106.25
126.38
142.89
153.90
159.30
160.95
161.92
165.34
173.10
185.37
200.84
217.68
234.55
251.17
267.93
284.96
301.12
313.86
319.91
316.72
303.53
281.69
253.95
223.21
191.46
159.64
128.32
98.48
72.00
51.17
37.87
32.62
34.37
40.95
49.93
59.34
68.12
75.86
82.39
87.43
90.46
90.92
88.50
83.29
75.78
66.64
56.54
46.14
36.05
27.02
19.84
15.14
13.13
13.31
14.67
15.93
16.12
14.87
12.46
9.48
6.43
3.38
0.09
-3.84
-8.60
-14.15
-20.18
-26.45
-32.93
-39.83
-47.43
-55.83
-64.68
-73.00
-79.28
-81.83
-79.26
-71.12
-58.19
-42.39
-26.16
-11.63
0.14
9.35
17.09
24.52
32.21
39.79
46.29
50.64
52.32
51.57
49.13
45.96
42.71
39.59
36.48
33.10
29.28
25.10
20.93
17.30
14.78
13.71
14.02
15.08
15.87
15.34
12.72
7.86
1.09
-7.13
-16.41
-26.54
-37.25
-47.99
-57.96
-66.40
-73.04
-78.22
-82.60
-86.62
-89.93
-91.35
-89.29
-82.49
-70.59
-54.18
-34.52
-13.05
8.92
30.19
49.41
64.97
75.17
78.68
75.27
66.12
53.86
41.78
32.70
27.98
26.98
27.65
27.69
25.80
22.47
19.67
19.85
24.62
33.93
46.11
58.71
69.57
77.72
83.64
88.83
94.84
102.32
110.45
117.00
119.09
114.21
101.13
80.78
56.46
33.41
17.62
14.21
25.80
51.37
86.21
122.78
152.79
169.31
168.51
150.41
118.67
79.43
39.66
5.24
-20.93
-39.03
-51.79
-63.12
-76.62
-94.43
-116.87
-142.74
-170.19
-198.17
-225.16
-248.72
-265.61
-272.90
-269.40
-256.46
-237.41
-216.59
-199.21
-188.02
-182.73
-180.80
-179.61
-178.22
-177.83
-180.45
-188.11
-203.51
-226.82
-255.25
-283.89
-307.69
-323.40
-330.40
-329.59
-311.06
-270.19
-208.29
-132.93
-53.97
20.73
86.28
139.82
182.12
216.38
243.14
262.76
275.74
282.86
285.06
283.69
275.83
262.34
245.52
226.37
205.65
183.60
160.09
134.92
108.13
80.49
54.48
32.63
15.85
4.20
-3.07
-7.30
-10.06
-12.83
-16.72
-21.55
-26.85
-32.58
-38.47
-44.06
-48.76
-52.04
-53.79
-54.36
-54.03
-53.28
-52.59
-51.99
-50.95
-48.70
-44.56
-38.23
-29.96
-20.24
-9.95
-0.05
8.64
15.61
20.73
24.29
26.71
28.44
29.82
30.89
31.48
31.37
30.44
28.76
26.52
23.90
21.01
17.85
14.44
10.90
7.41
4.19
1.32
-1.37
-4.29
-7.94
-12.66
-18.40
-24.72
-30.87
-36.10
-39.91
-42.27
-43.51
-44.30
-45.36
-47.28
-50.42
-54.72
-59.60
-63.85
-65.68
-62.95
-53.82
-37.32
-13.94
14.27
44.15
72.25
95.78
113.25
124.57
130.66
132.96
133.02
132.17
131.35
130.90
130.41
128.75
124.35
115.73
102.34
84.99
65.54
46.29
29.17
15.43
5.53
-0.59
-3.41
-3.75
-2.40
-0.38
1.26
1.79
1.15
-0.12
-0.98
-0.64
1.30
5.04
10.29
16.26
22.02
26.88
30.77
34.42
38.48
41.47
42.27
40.04
34.00
22.92
5.61
-18.10
-46.14
-74.92
-99.80
-116.37
-122.38
-118.82
-109.53
-99.53
-95.22
-97.64
-105.76
-116.81
-126.99
-132.86
-132.23
-124.45
-110.04
-90.44
-67.49
-43.92
-22.53
-5.40
6.33
13.77
18.17
21.20
24.30
28.41
33.31
38.23
42.43
45.28
46.31
44.97
41.10
34.94
27.43
19.64
12.48
6.37
1.05
-3.98
-8.95
-13.31
-15.91
-15.61
-12.19
-6.46
0.01
5.67
9.72
12.33
14.46
17.22
21.12
25.79
30.16
32.97
33.30
31.01
26.56
20.87
14.94
9.58
5.28
2.34
0.81
0.39
0.39
-0.45
-3.48
-9.50
-18.11
-27.57
-35.38
-39.41
-39.11
-35.95
-32.91
-33.12
-38.51
-48.96
-62.63
-76.99
-90.00
-100.90
-110.24
-119.40
-129.73
-141.81
-155.19
-168.44
-179.63
-187.04
-189.73
-187.97
-183.18
-177.68
-174.10
-174.79
-180.98
-192.15
-205.51
-216.21
-218.19
-205.99
-176.85
-132.35
-78.54
-24.21
22.14
55.22
74.43
83.21
86.91
90.23
95.77
103.92
113.91
124.88
136.31
147.70
157.97
165.28
167.65
164.00
154.90
142.32
128.63
115.46
102.94
89.86
74.46
55.54
33.13
8.44
-16.62
-40.29
-61.34
-79.05
-92.89
-102.19
-106.17
-104.33
-96.89
-84.94
-70.10
-53.91
-37.26
-20.40
-3.36
13.58
29.70
44.27
57.17
69.08
81.15
94.08
107.45
119.76
129.26
135.04
137.74
139.38
142.40
148.38
157.39
167.90
177.61
184.34
186.69
184.35
177.90
168.48
157.41
145.92
134.95
125.14
116.75
109.68
103.47
97.37
90.57
82.58
73.51
64.26
56.30
51.26
50.43
54.27
62.20
72.55
82.82
90.49
93.68
92.04
87.10
81.83
79.59
82.64
91.13
103.04
115.20
124.57
129.46
129.89
127.09
122.67
117.84
113.02
107.93
102.49
96.61
90.28
83.33
75.22
65.33
53.49
40.24
26.99
16.37
10.53
10.48
15.36
22.61
29.03
31.95
29.59
21.24
7.97
-8.81
-27.25
-45.43
-61.51
-73.90
-81.63
-85.45
-91.96
-105.59
-127.68
-154.47
-178.69
-193.75
-198.19
-193.48
-183.69
-174.09
-166.47
-161.46
-157.30
-151.05
-140.49
-125.67
-108.98
-94.34
-85.05
-81.42
-81.47
-81.91
-80.11
-75.57
-69.72
-64.79
-63.04
-65.95
-73.43
-84.45
-96.92
-108.20
-115.46
-116.34
-109.59
-95.93
-78.34
-61.19
-49.43
-46.96
-55.37
-73.13
-95.67
-116.24
-128.07
-126.47
-110.16
-81.84
-46.64
-10.04
24.11
54.08
79.57
100.04
113.86
118.58
112.09
94.33
67.91
37.76
9.62
-11.76
-24.03
-27.69
-25.33
-20.22
-14.89
-10.22
-5.48
0.78
9.70
21.32
34.61
48.05
60.52
71.84
82.53
93.28
104.45
115.70
126.07
134.30
139.21
140.13
137.26
131.58
124.65
117.99
112.39
107.65
102.69
96.20
87.23
75.69
62.43
49.02
37.31
29.08
25.78
28.58
37.97
53.15
71.22
87.16
95.50
93.17
82.38
71.06
69.95
87.10
122.82
168.28
209.01
231.66
230.16
207.67
173.48
136.87
102.11
67.41
28.17
-18.21
-69.15
-117.60
-155.37
-177.44
-184.13
-180.63
-173.99
-169.83
-170.37
-174.14
-177.79
-178.36
-174.88
-168.91
-163.54
-161.74
-164.96
-172.48
-181.75
-189.51
-192.92
-190.47
-182.23
-169.52
-154.34
-138.66
-124.18
-112.22
-103.88
-99.88
-100.39
-104.37
-109.44
-112.27
-109.69
-100.11
-84.57
-66.62
-51.04
-41.90
-40.85
-46.07
-52.73
-54.56
-46.00
-24.05
10.54
53.38
97.74
136.66
165.10
181.17
185.99
182.56
174.08
162.94
150.64
138.40
127.65
119.86
115.79
114.67
114.10
111.02
103.19
90.53
75.28
61.01
50.86
46.11
45.68
46.73
46.02
41.21
31.75
18.83
4.59
-8.87
-20.35
-29.94
-38.69
-47.91
-58.40
-70.11
-82.22
-93.54
-103.04
-110.02
-114.24
-115.74
-114.79
-111.92
-107.99
-104.13
-101.56
-101.26
-103.73
-108.77
-115.53
-122.71
-128.86
-132.70
-133.55
-131.64
-128.04
-124.34
-121.92
-121.14
-121.02
-119.46
-114.52
-105.55
-93.93
-82.60
-74.87
-72.99
-77.40
-86.61
-97.86
-107.86
-113.55
-112.69
-104.20
-88.47
-67.32
-43.63
-20.69
-1.37
12.58
20.78
24.07
23.91
21.82
18.81
15.21
10.81
5.21
-1.71
-9.59
-17.84
-26.11
-34.36
-42.77
-51.08
-58.49
-63.56
-64.87
-61.79
-54.98
-46.42
-38.86
-35.08
-36.80
-44.36
-55.88
-67.23
-72.86
-67.71
-49.50
-20.12
14.67
47.80
73.25
88.84
96.65
101.37
107.48
116.98
128.98
140.49
149.11
153.44
153.86
151.80
148.56
144.37
138.43
129.89
118.41
109.16
106.17
110.23
117.53
121.44
115.76
97.21
66.64
25.95
-19.31
-63.41
-101.33
-129.53
-146.28
-151.74
-148.01
-134.32
-113.74
-90.09
-67.59
-49.21
-36.05
-27.44
-21.78
-17.42
-13.21
-9.31
-5.67
-2.61
-0.33
0.99
1.35
0.68
-0.93
-3.12
-5.63
-7.44
-7.46
-4.76
1.12
10.07
21.45
34.38
47.94
60.91
72.52
82.24
89.74
94.92
97.86
98.81
98.14
96.30
93.56
90.28
86.85
83.60
80.80
78.54
76.71
75.08
73.32
71.06
68.04
64.08
59.08
52.93
45.59
37.02
27.30
16.72
5.69
-5.25
-15.62
-24.99
-33.06
-39.70
-44.94
-49.07
-52.57
-56.01
-59.76
-63.87
-67.84
-70.76
-71.60
-69.50
-64.06
-55.45
-44.32
-31.64
-18.46
-5.64
6.21
16.69
25.58
32.70
37.85
40.89
41.82
40.91
38.67
35.74
32.68
29.86
27.44
25.42
23.80
22.52
21.54
20.72
19.79
18.49
16.66
14.32
11.67
8.99
6.47
4.19
2.06
-0.10
-2.50
-5.21
-8.15
-11.11
-13.86
-16.27
-18.44
-20.60
-23.12
-26.27
-30.05
-34.20
-38.18
-41.23
-42.51
-41.22
-36.73
-28.79
-17.67
-4.13
10.59
25.13
38.26
49.14
57.38
63.08
66.52
68.07
68.11
66.92
64.71
61.73
58.22
54.46
50.72
47.27
44.27
41.78
39.66
37.70
35.62
33.18
30.19
26.56
22.27
17.34
11.88
6.08
0.18
-5.52
-10.87
-15.79
-20.36
-24.72
-28.97
-33.08
-37.07
-40.92
-44.78
-48.87
-53.32
-57.96
-62.23
-65.18
-65.68
-62.78
-56.01
-45.59
-32.33
-17.42
-2.16
12.37
25.37
36.32
44.97
51.16
54.89
56.27
55.58
53.28
49.97
46.31
42.88
40.11
38.22
37.27
37.15
37.66
38.52
39.41
40.03
40.13
39.59
38.38
36.56
34.23
31.35
27.90
23.78
18.92
13.39
7.37
1.16
-4.94
-10.61
-15.71
-20.22
-24.32
-28.33
-32.60
-37.35
-42.56
-47.84
-52.48
-55.54
-56.08
-53.36
-47.12
-37.65
-25.77
-12.69
0.28
12.01
21.80
29.41
34.97
38.71
40.86
41.51
40.78
38.97
36.56
34.17
32.32
31.26
30.91
31.03
31.35
31.74
32.21
32.73
33.17
33.21
32.47
30.65
27.70
23.82
19.40
14.89
10.59
6.62
2.89
-0.84
-4.72
-8.76
-12.78
-16.57
-20.02
-23.22
-26.46
-30.07
-34.24
-38.83
-43.38
-47.18
-49.41
-49.31
-46.33
-40.25
-31.24
-19.85
-6.97
6.31
18.91
29.90
38.59
44.64
48.02
48.91
47.72
44.91
40.99
36.42
31.63
26.91
22.53
18.64
15.35
12.73
10.76
9.39
8.48
7.83
7.23
6.47
5.38
3.92
2.16
0.21
-1.83
-3.91
-6.02
-8.18
-10.38
-12.56
-14.71
-16.85
-19.10
-21.67
-24.74
-28.47
-32.85
-37.77
-42.98
-48.06
-52.50
-55.65
-56.82
-55.36
-50.86
-43.27
-32.97
-20.76
-7.70
5.00
16.19
25.00
30.93
33.98
34.59
33.51
31.57
29.49
27.70
26.35
25.29
24.24
22.99
21.44
19.70
18.05
16.78
16.07
15.88
15.91
15.65
14.66
12.61
9.43
5.32
0.64
-4.22
-8.87
-13.11
-16.90
-20.27
-23.38
-26.29
-29.02
-31.55
-33.91
-36.22
-38.73
-41.66
-45.05
-48.67
-51.96
-54.06
-54.04
-51.06
-44.57
-34.47
-21.13
-5.32
11.87
29.31
45.90
60.75
73.16
82.61
88.77
91.58
91.31
88.56
84.11
78.79
73.27
67.99
63.16
58.88
55.19
52.10
49.50
47.20
44.87
42.21
38.98
35.09
30.60
25.64
20.47
15.30
10.32
5.61
1.12
-3.30
-7.86
-12.68
-17.72
-22.80
-27.64
-32.00
-35.77
-39.08
-42.21
-45.53
-49.36
-53.80
-58.61
-63.14
-66.50
-67.72
-66.06
-61.15
-53.13
-42.61
-30.51
-17.87
-5.69
5.13
13.96
20.45
24.59
26.65
27.03
26.06
24.10
21.43
18.36
15.24
12.40
10.08
8.36
7.21
6.52
6.21
6.27
6.62
7.18
7.66
7.72
7.01
5.35
2.74
-0.64
-4.46
-8.43
-12.31
-15.93
-19.32
-22.47
-25.40
-28.11
-30.56
-32.79
-34.89
-37.07
-39.56
-42.63
-46.36
-50.52
-54.52
-57.46
-58.29
-56.17
-50.72
-42.13
-31.13
-18.77
-6.13
5.91
16.69
25.83
33.09
38.35
41.55
42.79
42.32
40.59
38.14
35.51
33.07
31.01
29.32
27.98
26.94
26.27
26.02
26.16
26.49
26.69
26.36
25.18
23.02
19.95
16.23
12.18
8.04
3.91
-0.24
-4.51
-8.99
-13.68
-18.48
-23.21
-27.72
-31.91
-35.78
-39.43
-42.99
-46.68
-50.67
-55.02
-59.54
-63.71
-66.64
-67.31
-64.82
-58.70
-49.08
-36.73
-22.79
-8.53
4.94
16.77
26.47
33.79
38.72
41.39
42.04
41.02
38.73
35.61
32.09
28.60
25.50
23.09
21.51
20.81
20.88
21.51
22.42
23.24
23.64
23.28
21.98
19.79
16.94
13.77
10.54
7.37
4.15
0.69
-3.16
-7.38
-11.79
-16.11
-20.12
-23.69
-26.86
-29.73
-32.48
-35.28
-38.35
-41.90
-46.09
-50.83
-55.79
-60.31
-63.40
-64.03
-61.38
-55.13
-45.60
-33.74
-20.79
-8.03
3.58
13.47
21.38
27.27
31.11
32.91
32.76
30.92
27.85
24.14
20.38
17.02
14.34
12.41
11.28
10.98
11.56
13.03
15.24
17.86
20.36
22.20
22.96
22.47
20.84
18.40
15.48
12.34
9.07
5.68
2.12
-1.63
-5.52
-9.47
-13.41
-17.29
-21.09
-24.80
-28.42
-32.02
-35.75
-39.78
-44.15
-48.54
-52.28
-54.42
-54.07
-50.70
-44.38
-35.71
-25.55
-14.71
-3.77
6.84
16.73
25.34
32.01
36.10
37.31
35.77
32.19
27.59
23.05
19.41
17.05
15.77
14.96
13.93
12.19
9.72
7.03
4.92
4.01
4.46
5.73
6.84
6.69
4.62
0.54
-5.11
-11.61
-18.16
-24.00
-28.38
-30.60
-30.29
-27.61
-23.35
-18.46
-13.29
-7.10
1.62
14.01
29.36
44.61
55.15
56.89
48.40
31.91
12.41
-4.52
-15.11
-18.62
-16.96
-13.19
-9.89
-8.26
-8.02
-7.94
-6.65
-3.42
1.03
3.93
0.56
-14.43
-44.46
-88.45
-139.51
-185.97
-214.93
-216.77
-188.88
-136.68
-71.88
-8.52
41.32
70.67
78.65
69.65
51.10
30.91
15.27
7.45
7.52
12.95
19.71
23.46
20.72
9.85
-8.65
-32.16
-56.81
-78.79
-95.14
-104.48
-107.09
-104.33
-97.75
-88.85
-78.82
-68.41
-58.16
-47.28
-34.00
-16.40
6.74
35.48
67.99
101.13
131.38
154.90
170.13
177.43
178.17
174.43
168.76
163.00
158.22
154.56
150.01
143.73
135.91
127.14
118.78
112.90
110.74
112.64
118.05
124.50
132.26
143.83
162.61
183.47
200.31
206.76
199.40
190.85
182.86
173.79
161.64
139.32
105.04
61.56
14.57
-28.83
-62.60
-85.85
-99.81
-108.01
-115.04
-123.87
-134.86
-146.45
-156.20
-162.15
-164.90
-164.58
-161.04
-154.34
-144.61
-132.71
-120.52
-110.12
-102.96
-100.36
-101.72
-105.48
-110.17
-114.65
-118.37
-121.71
-125.78
-132.07
-142.22
-156.53
-173.60
-190.79
-204.79
-212.40
-211.69
-202.10
-183.70
-156.68
-121.41
-79.04
-32.51
13.35
53.22
82.30
97.42
98.40
88.26
71.86
55.08
43.73
42.93
56.93
86.69
128.00
172.02
207.87
226.18
223.51
204.10
173.64
143.71
125.97
124.87
135.61
151.45
165.18
173.69
177.02
176.73
172.05
163.29
151.03
136.35
120.31
102.22
79.84
49.68
9.01
-41.53
-98.22
-155.46
-206.85
-246.54
-271.04
-279.27
-273.17
-256.09
-231.02
-200.45
-166.16
-128.55
-87.49
-43.84
0.50
40.98
72.81
93.18
101.23
98.37
88.87
79.15
75.76
84.35
105.51
135.50
167.36
190.84
195.08
172.80
122.96
50.94
-32.33
-116.45
-192.52
-244.84
-261.25
-240.15
-192.30
-134.91
-91.64
-66.14
-55.87
-56.41
-63.77
-72.45
-80.65
-87.44
-91.39
-90.79
-83.29
-69.72
-52.18
-32.83
-14.38
0.45
10.68
17.29
22.26
28.27
35.53
43.09
49.85
54.47
55.64
53.30
48.59
43.23
39.20
36.75
35.30
34.09
32.30
29.15
24.55
19.02
13.38
8.57
4.80
1.91
-0.35
-2.33
-4.53
-7.23
-10.44
-13.89
-17.04
-19.51
-21.00
-21.27
-20.11
-17.43
-13.21
-7.59
-0.96
6.11
12.91
18.80
23.31
26.28
27.76
27.98
27.32
26.10
24.60
23.02
21.40
19.76
18.11
16.46
14.89
13.41
12.06
10.88
9.94
9.32
9.04
9.03
9.08
8.94
8.47
7.68
6.75
5.86
5.12
4.46
3.67
2.59
1.13
-0.67
-2.66
-4.69
-6.65
-8.56
-10.50
-12.61
-15.13
-18.19
-21.84
-25.93
-30.03
-33.48
-35.49
-35.34
-32.64
-27.44
-20.24
-11.85
-3.13
5.18
12.55
18.67
23.38
26.55
28.16
28.25
27.01
24.71
21.70
18.33
14.90
11.65
8.76
6.37
4.53
3.26
2.51
2.22
2.26
2.47
2.66
2.61
2.19
1.30
-0.00
-1.63
-3.49
-5.52
-7.74
-10.20
-12.97
-16.02
-19.23
-22.38
-25.21
-27.53
-29.25
-30.48
-31.42
-32.36
-33.58
-35.20
-37.17
-39.17
-40.65
-40.93
-39.35
-35.49
-29.30
-21.15
-11.78
-2.11
7.00
14.89
21.17
25.71
28.53
29.74
29.56
28.20
25.99
23.26
20.34
17.55
15.15
13.27
11.99
11.31
11.13
11.28
11.55
11.76
11.81
11.62
11.14
10.29
9.00
7.18
4.87
2.18
-0.65
-3.38
-5.82
-7.98
-9.97
-11.98
-14.08
-16.23
-18.27
-20.07
-21.67
-23.32
-25.43
-28.27
-31.80
-35.53
-38.55
-39.87
-38.72
-34.81
-28.37
-20.07
-10.70
-1.07
8.21
16.69
24.01
29.88
34.13
36.70
37.69
37.33
35.93
33.77
31.11
28.11
24.99
22.02
19.58
18.08
17.80
18.69
20.28
21.78
22.24
20.93
17.63
12.63
6.63
0.40
-5.53
-10.94
-15.91
-20.62
-25.23
-29.81
-34.41
-39.01
-43.54
-47.87
-51.80
-55.14
-57.84
-60.02
-61.91
-63.64
-65.09
-65.80
-65.13
-62.45
-57.42
-50.13
-41.02
-30.69
-19.79
-8.86
1.58
11.02
18.95
24.97
28.85
30.61
30.49
28.86
26.13
22.70
18.99
15.40
12.38
10.25
9.19
9.12
9.78
10.81
11.89
12.85
13.66
14.33
14.90
15.27
15.30
14.80
13.60
11.70
9.22
6.42
3.54
0.79
-1.79
-4.31
-6.93
-9.87
-13.28
-17.26
-21.88
-27.14
-32.86
-38.62
-43.70
-47.18
-48.18
-46.10
-40.85
-32.89
-23.08
-12.40
-1.68
8.55
17.92
26.19
33.00
38.00
40.92
41.78
40.96
39.12
36.99
35.09
33.62
32.54
31.71
31.05
30.63
30.57
30.95
31.71
32.58
33.19
33.20
32.42
30.84
28.60
25.87
22.77
19.31
15.41
10.98
6.05
0.76
-4.62
-9.76
-14.41
-18.41
-21.80
-24.78
-27.62
-30.65
-34.05
-37.82
-41.75
-45.33
-47.88
-48.67
-47.03
-42.59
-35.36
-25.75
-14.49
-2.53
9.14
19.70
28.54
35.37
40.14
42.95
44.02
43.59
42.00
39.57
36.63
33.53
30.50
27.74
25.36
23.47
22.17
21.54
21.62
22.35
23.54
24.90
26.07
26.73
26.63
25.66
23.81
21.17
17.92
14.25
10.34
6.32
2.23
-1.86
-5.90
-9.80
-13.49
-17.04
-20.62
-24.50
-28.92
-33.84
-38.90
-43.40
-46.44
-47.19
-45.08
-39.98
-32.13
-22.18
-10.92
0.69
11.77
21.55
29.55
35.48
39.31
41.18
41.29
39.92
37.38
34.01
30.21
26.38
22.90
20.03
17.96
16.74
16.32
16.61
17.43
18.54
19.61
20.33
20.46
19.86
18.55
16.60
14.08
11.04
7.50
3.51
-0.79
-5.16
-9.36
-13.21
-16.66
-19.82
-22.83
-25.83
-28.93
-32.29
-36.11
-40.58
-45.69
-51.02
-55.72
-58.61
-58.54
-54.77
-47.22
-36.53
-23.86
-10.57
2.14
13.39
22.67
29.72
34.61
37.55
38.80
38.62
37.19
34.65
31.22
27.33
23.55
20.70
19.45
20.01
21.94
24.40
26.65
28.38
29.80
31.47
34.14
38.17
43.33
48.92
54.32
59.25
63.67
67.07
67.96
64.39
54.24
36.20
10.48
-20.68
-53.29
-82.75
-105.28
-118.83
-122.58
-116.91
-102.68
-81.41
-55.48
-28.22
-3.64
14.64
21.95
17.76
7.22
-0.16
3.36
18.64
39.69
58.13
68.20
69.47
66.52
64.93
68.13
75.61
83.89
89.40
90.62
88.42
84.99
84.74
87.33
90.78
92.33
89.83
82.87
72.99
62.66
54.06
48.34
44.93
42.52
39.48
34.67
27.94
19.97
11.70
3.70
-4.09
-11.73
-19.28
-26.89
-34.60
-42.29
-49.72
-56.81
-63.66
-70.43
-77.25
-83.75
-88.99
-91.67
-90.48
-84.64
-74.35
-60.78
-45.71
-31.03
-18.12
-7.75
-0.22
4.39
5.99
4.59
0.43
-5.84
-13.24
-20.72
-27.47
-32.97
-37.00
-39.52
-40.53
-40.09
-38.38
-35.75
-32.64
-29.52
-26.68
-24.21
-22.14
-20.57
-19.75
-20.00
-21.59
-24.52
-28.51
-33.06
-37.67
-41.99
-45.89
-49.47
-52.93
-56.50
-60.30
-64.31
-68.34
-72.06
-75.10
-77.07
-77.61
-76.47
-73.38
-68.05
-60.14
-49.34
-35.62
-19.34
-1.39
16.94
34.27
49.42
61.76
71.28
78.54
84.42
89.81
95.28
100.98
106.59
111.44
114.76
115.89
114.53
110.88
105.61
99.54
93.37
87.19
80.30
71.45
59.39
43.64
24.84
4.68
-14.89
-32.57
-48.29
-63.17
-78.88
-96.62
-116.22
-136.13
-153.85
-166.92
-173.72
-174.02
-168.90
-160.57
-151.71
-144.71
-140.97
-140.28
-140.80
-139.44
-132.91
-118.94
-97.48
-70.62
-41.85
-14.69
8.42
26.60
40.34
50.94
59.69
67.09
73.30
78.75
84.30
90.84
98.78
107.79
116.96
125.22
130.47
131.19
127.25
120.18
112.15
104.90
99.02
93.99
88.66
80.10
66.44
48.32
29.21
13.51
4.22
1.59
3.07
4.08
-3.11
-25.48
-66.41
-123.88
-191.66
-261.21
-323.90
-372.91
-389.84
-364.96
-302.72
-221.40
-142.02
-77.90
-31.77
0.00
22.41
38.82
48.40
50.03
42.76
31.71
22.94
20.62
25.67
36.51
50.27
62.37
69.46
70.81
68.63
65.80
64.76
65.84
68.06
70.03
69.66
65.82
59.03
51.53
45.56
42.36
41.69
42.41
43.10
42.28
39.24
34.32
28.71
23.48
19.11
15.41
11.95
8.29
4.13
-0.60
-5.69
-10.72
-15.38
-19.58
-23.41
-27.06
-30.74
-34.58
-38.61
-42.67
-46.32
-48.93
-49.73
-48.00
-43.22
-35.28
-24.58
-11.94
1.64
15.11
27.60
38.52
47.51
54.40
59.12
61.63
61.92
60.07
56.33
51.16
45.27
39.42
34.30
30.34
27.67
26.15
25.47
25.32
25.44
25.67
25.91
26.10
26.21
26.20
25.98
25.38
24.21
22.29
19.59
16.17
12.27
8.09
3.79
-0.56
-4.93
-9.31
-13.64
-17.91
-22.27
-26.92
-32.13
-37.95
-44.06
-49.70
-53.81
-55.35
-53.55
-48.18
-39.52
-28.26
-15.26
-1.42
12.42
25.45
36.84
45.84
51.91
54.90
55.08
53.17
50.03
46.44
42.94
39.72
36.83
34.28
32.14
30.48
29.23
28.24
27.17
25.83
24.14
22.24
20.37
18.73
17.35
16.02
14.47
12.37
9.51
5.82
1.42
-3.51
-8.68
-13.85
-18.89
-23.84
-28.86
-34.09
-39.60
-45.42
-51.42
-57.38
-62.83
-67.07
-69.21
-68.40
-64.01
-55.91
-44.59
-31.10
-16.73
-2.68
10.14
21.19
30.10
36.80
41.25
43.52
43.80
42.41
39.83
36.56
32.88
28.72
24.33
19.93
15.97
12.86
10.81
9.84
9.63
9.43
8.20
5.98
3.16
0.57
-1.30
-2.69
-4.48
-7.76
-13.38
-21.53
-29.55
-34.35
-33.23
-26.01
-15.32
-4.74
3.47
9.80
17.01
30.87
55.52
92.76
140.77
195.98
255.61
319.11
386.96
442.73
468.66
450.44
387.94
296.03
197.06
110.73
47.76
8.52
-14.13
-23.22
-25.54
-24.19
-21.02
-18.37
-19.12
-25.50
-38.02
-55.29
-73.07
-89.53
-102.98
-114.79
-128.49
-147.09
-170.71
-196.10
-218.08
-230.36
-228.95
-212.17
-182.18
-144.19
-105.06
-71.20
-47.30
-35.93
-37.08
-49.12
-68.16
-89.16
-106.65
-116.07
-115.30
-105.79
-92.17
-79.89
-72.69
-70.36
-69.38
-65.02
-53.96
-35.90
-13.50
9.21
28.92
44.09
55.05
62.87
68.32
71.44
71.75
68.94
63.22
55.86
48.65
43.28
40.40
39.01
36.74
30.82
19.79
4.56
-11.33
-22.95
-25.85
-18.06
-1.00
20.99
42.34
58.19
65.86
65.26
58.14
46.96
33.74
19.52
4.56
-11.04
-26.68
-41.08
-52.50
-59.55
-61.85
-60.30
-56.71
-52.98
-50.19
-48.20
-45.86
-41.69
-34.86
-25.70
-15.59
-6.27
0.96
5.89
9.34
12.62
16.77
21.97
27.58
32.48
35.80
37.36
37.83
38.27
39.52
41.79
44.63
47.33
49.39
50.90
52.45
54.74
58.09
62.16
66.05
68.61
68.95
66.67
61.70
54.30
44.96
34.38
23.53
13.58
5.63
0.21
-2.97
-5.38
-8.76
-14.46
-22.76
-32.93
-43.66
-53.90
-63.31
-72.25
-81.76
-91.95
-101.64
-108.91
-112.29
-111.93
-110.24
-111.21
-119.08
-137.79
-168.43
-208.67
-253.26
-295.50
-328.93
-349.24
-354.57
-344.88
-322.12
-287.74
-242.89
-189.61
-131.95
-75.76
-27.75
7.12
35.06
60.10
84.07
105.27
119.64
123.65
116.94
102.17
84.11
67.58
54.49
44.76
37.13
30.30
21.39
11.32
1.33
-7.61
-15.22
-22.68
-31.02
-40.36
-49.26
-55.50
-56.68
-51.77
-41.11
-26.09
-7.91
11.89
32.43
54.02
76.78
100.22
122.51
141.39
154.98
163.01
166.53
167.22
167.57
169.05
172.19
176.37
180.64
183.90
186.35
188.61
190.87
194.18
198.84
204.68
210.79
215.90
218.61
219.12
217.86
206.41
178.84
132.63
70.88
1.53
-62.01
-114.71
-154.61
-182.68
-203.32
-219.70
-234.13
-246.70
-255.32
-256.98
-248.95
-228.29
-191.20
-139.36
-79.51
-23.07
20.57
48.06
59.90
59.13
48.68
33.60
18.12
5.57
-2.62
-6.36
-6.91
-6.68
-8.46
-13.98
-23.52
-36.56
-51.07
-64.31
-73.47
-77.02
-75.26
-69.75
-62.29
-54.35
-47.27
-41.86
-38.31
-36.06
-34.14
-31.61
-27.69
-22.05
-15.22
-8.74
-4.85
-5.44
-11.02
-20.46
-31.38
-40.99
-47.54
-50.92
-52.04
-52.41
-53.07
-54.01
-54.34
-53.06
-48.97
-41.45
-30.26
-14.15
7.78
35.29
66.36
97.56
124.78
145.87
160.40
169.64
177.65
188.05
202.42
219.87
237.87
253.08
264.18
270.30
271.08
269.06
267.19
267.81
272.05
279.53
287.95
295.87
300.57
285.17
240.09
166.50
76.65
-13.39
-86.45
-144.78
-193.72
-238.37
-281.31
-319.62
-348.65
-365.06
-368.40
-361.34
-348.54
-328.28
-300.00
-264.37
-222.04
-175.25
-128.35
-83.58
-43.87
-12.18
11.83
27.72
36.78
42.31
47.41
53.86
61.91
70.25
77.02
81.81
84.14
84.06
82.33
79.56
76.07
71.99
67.08
61.20
54.99
48.73
42.61
36.66
30.72
24.57
18.18
11.50
4.59
-2.26
-8.97
-15.47
-21.64
-27.31
-32.27
-36.35
-39.72
-42.74
-45.84
-49.40
-53.48
-57.89
-62.29
-66.31
-69.69
-72.28
-73.91
-74.41
-73.49
-70.83
-66.06
-58.96
-49.54
-38.14
-25.39
-12.13
0.69
12.24
21.94
29.58
35.31
39.42
42.15
43.77
44.55
44.64
44.11
43.06
41.62
40.06
38.71
37.65
37.02
36.85
36.79
36.31
35.04
33.09
31.28
30.82
32.37
36.38
42.40
48.78
53.27
54.09
51.05
46.24
42.79
42.75
45.22
47.04
43.49
30.57
6.96
-25.47
-62.04
-97.59
-130.10
-157.25
-176.45
-185.11
-181.99
-168.47
-149.04
-129.32
-110.51
-95.71
-83.76
-69.13
-44.60
-6.86
40.51
88.33
129.13
160.12
181.70
197.48
210.85
223.91
236.08
245.16
241.74
221.63
185.14
136.62
86.49
38.48
-6.58
-49.56
-89.87
-125.72
-153.83
-171.97
-180.21
-180.24
-175.30
-167.61
-158.10
-146.22
-130.78
-110.05
-83.89
-54.28
-24.49
1.63
21.86
35.81
44.70
50.52
55.70
61.97
69.94
79.33
88.99
97.94
105.44
111.15
115.30
118.92
123.32
129.62
138.24
148.37
158.37
166.03
169.30
166.98
159.14
147.12
132.86
118.28
104.40
91.35
78.59
65.56
52.02
38.05
23.63
8.25
-8.96
-28.94
-52.08
-77.58
-103.65
-128.22
-149.81
-168.37
-184.79
-199.83
-213.99
-227.17
-238.47
-246.73
-251.15
-251.83
-250.24
-248.25
-246.35
-244.30
-241.15
-234.89
-223.15
-204.15
-177.44
-144.87
-109.21
-71.88
-34.34
1.66
34.99
64.79
90.28
110.72
124.60
131.29
133.30
133.30
132.85
132.91
133.18
131.91
133.33
138.67
135.81
119.50
93.64
61.95
28.66
-2.39
-28.32
-47.50
-60.52
-68.61
-71.28
-68.83
-62.90
-54.95
-45.98
-36.46
-26.37
-16.26
-6.49
4.18
16.22
28.69
40.41
50.12
56.81
59.97
59.24
55.03
49.31
43.88
39.63
36.88
35.38
34.43
33.27
31.00
27.18
22.24
16.66
10.65
4.30
-2.39
-9.42
-16.60
-23.62
-29.98
-35.08
-38.60
-40.76
-42.22
-43.84
-46.31
-49.81
-53.83
-57.18
-58.43
-56.42
-50.65
-41.46
-29.86
-17.04
-4.03
8.56
20.53
31.93
42.85
53.45
63.85
74.17
84.39
94.14
102.72
109.23
112.89
113.32
110.76
106.03
100.24
94.48
89.46
85.45
82.32
79.80
77.82
76.67
77.00
79.41
84.05
90.18
96.31
100.74
102.12
100.04
94.94
87.49
77.95
65.76
49.79
29.04
3.40
-26.14
-57.80
-89.80
-120.69
-149.20
-173.49
-190.81
-197.99
-192.83
-175.68
-150.17
-122.23
-97.96
-81.27
-72.66
-69.84
-69.66
-70.00
-70.56
-72.30
-76.08
-81.60
-87.07
-89.98
-88.11
-80.32
-67.00
-49.98
-32.10
-16.56
-5.88
-1.17
-1.65
-4.99
-8.28
-9.07
-6.18
0.33
9.61
20.60
32.28
43.75
54.17
62.82
69.43
74.34
78.40
82.49
86.93
91.11
93.59
92.55
86.42
74.37
56.50
33.96
8.96
-15.32
-35.09
-47.01
-49.63
-44.82
-37.96
-36.28
-45.57
-67.04
-95.82
-122.68
-137.98
-136.12
-117.98
-90.11
-61.35
-38.82
-25.26
-19.10
-16.54
-14.36
-11.59
-9.44
-9.70
-12.91
-17.33
-19.44
-15.64
-4.10
14.29
36.26
57.67
75.07
86.38
90.45
86.22
72.49
48.85
17.34
-16.72
-45.59
-61.70
-60.94
-44.46
-18.19
9.62
31.71
44.08
46.37
40.67
29.70
15.76
0.58
-13.91
-25.13
-30.12
-26.70
-14.86
2.65
20.98
35.06
41.65
40.51
34.14
26.28
20.07
17.01
17.00
19.29
23.58
30.41
40.70
54.91
72.34
91.10
108.65
122.58
131.30
134.34
132.36
126.97
120.57
115.91
115.64
121.59
134.10
151.60
170.80
187.39
197.38
198.39
190.46
175.69
157.35
138.34
119.98
101.56
81.10
56.85
28.66
-1.60
-30.94
-56.49
-76.59
-91.20
-101.69
-109.75
-116.61
-122.57
-127.54
-131.91
-136.66
-143.25
-153.22
-168.08
-189.46
-219.24
-259.13
-309.49
-369.17
-432.80
-490.95
-532.38
-548.43
-536.66
-501.92
-453.75
-402.34
-357.61
-324.14
-300.89
-282.97
-264.44
-240.39
-207.56
-164.53
-112.52
-61.30
-22.96
-7.25
-16.55
-45.14
-81.92
-115.13
-136.77
-144.24
-146.19
-151.98
-166.48
-188.18
-212.57
-237.00
-262.50
-291.97
-291.77
-238.94
-128.88
18.56
172.94
310.92
421.76
503.51
554.81
582.76
586.08
564.18
521.12
466.08
410.26
361.68
323.66
294.04
268.58
237.89
195.40
139.07
71.18
-1.92
-71.90
-129.77
-168.26
-182.83
-178.51
-166.64
-160.94
-172.10
-200.76
-237.22
-266.21
-275.33
-259.88
-227.00
-190.19
-155.51
-131.64
-122.74
-128.06
-138.67
-149.58
-159.52
-170.22
-182.31
-194.05
-202.73
-204.24
-195.23
-174.48
-144.12
-107.16
-66.54
-24.34
18.43
60.47
101.66
142.47
182.97
221.64
256.37
284.90
305.57
318.52
325.46
330.06
335.74
342.98
348.02
345.18
330.44
304.69
274.05
246.64
228.47
219.89
215.78
209.26
197.01
181.68
169.91
166.95
171.69
176.22
169.78
145.12
102.80
50.84
-0.22
-43.22
-77.69
-108.37
-140.13
-173.22
-201.82
-216.74
-210.72
-183.07
-141.03
-97.15
-64.29
-50.54
-56.50
-75.65
-97.94
-114.57
-122.10
-123.57
-126.18
-136.55
-156.22
-180.08
-198.68
-203.13
-189.96
-162.76
-129.95
-100.18
-78.00
-62.34
-48.22
-30.27
-5.88
23.56
53.88
80.94
102.40
118.76
132.85
148.32
168.14
193.78
225.31
261.92
302.32
343.91
382.30
411.42
424.78
417.71
389.05
341.64
281.20
215.19
150.28
91.51
42.28
4.38
-22.10
-39.28
-51.13
-62.48
-75.40
-90.64
-107.96
-126.62
-145.22
-160.91
-169.57
-166.38
-147.59
-108.59
-50.62
18.14
85.38
140.37
178.73
202.92
219.36
234.10
256.03
288.43
328.60
371.08
412.31
452.98
496.09
543.27
592.38
645.40
700.28
750.65
788.49
808.99
813.69
809.12
803.15
748.71
621.65
426.73
194.86
-36.97
-242.53
-408.86
-532.40
-616.10
-666.82
-690.66
-692.06
-676.18
-649.39
-617.34
-583.90
-552.25
-526.26
-507.57
-491.96
-474.58
-452.75
-426.62
-397.79
-367.96
-338.89
-312.53
-290.80
-271.31
-251.01
-228.36
-203.74
-178.43
-153.61
-130.25
-109.35
-91.83
-76.53
-61.77
-46.82
-32.23
-19.23
-8.79
-1.18
4.19
8.44
13.32
20.22
29.23
39.26
48.71
56.15
60.68
62.04
60.48
56.52
50.88
44.26
37.04
29.31
21.01
12.16
3.03
-6.04
-14.90
-23.85
-33.45
-44.21
-56.19
-68.85
-81.33
-92.97
-103.66
-113.95
-124.81
-137.27
-152.04
-169.33
-188.87
-210.01
-231.64
-252.36
-270.64
-285.16
-295.10
-300.12
-299.95
-293.91
-281.03
-260.42
-232.21
-197.87
-159.87
-120.79
-82.37
-45.02
-8.81
25.15
53.93
73.98
83.51
85.06
85.64
94.33
118.50
159.67
212.06
264.94
307.57
334.00
345.86
350.13
354.74
364.91
380.02
394.19
399.49
389.97
364.05
325.72
281.20
236.17
195.78
163.42
141.05
129.26
126.98
130.88
136.79
138.83
130.79
110.85
81.86
50.94
26.86
16.76
22.84
43.05
69.89
81.35
60.07
1.12
-83.81
-174.24
-247.97
-302.68
-340.91
-365.44
-377.73
-375.17
-356.04
-321.92
-278.11
-231.34
-187.60
-148.37
-112.94
-80.38
-49.14
-18.65
10.82
38.31
62.67
82.31
96.95
106.29
109.96
109.26
106.59
104.73
105.71
110.08
116.72
124.13
130.20
132.41
129.20
120.24
106.76
91.52
77.95
69.02
66.73
70.97
79.63
89.61
97.75
101.52
99.33
90.32
74.15
51.03
21.78
-12.18
-48.59
-84.65
-117.44
-144.49
-164.34
-176.73
-182.39
-182.46
-178.04
-169.85
-158.23
-143.62
-126.72
-108.64
-90.68
-74.12
-59.95
-48.82
-40.96
-36.15
-33.74
-32.76
-32.30
-31.74
-30.96
-30.28
-30.12
-30.79
-32.27
-34.32
-36.55
-38.62
-40.22
-41.03
-40.77
-39.21
-36.30
-32.30
-27.63
-22.71
-17.78
-12.83
-7.74
-2.46
2.77
7.41
10.72
12.03
11.01
7.95
3.80
-0.07
-2.26
-1.81
1.41
6.71
12.81
18.34
22.22
24.02
23.84
22.17
19.58
16.41
12.80
8.67
3.92
-1.46
-7.29
-13.24
-18.96
-24.22
-29.02
-33.49
-37.77
-41.80
-45.33
-48.02
-49.67
-50.26
-49.99
-49.03
-47.32
-44.57
-40.31
-34.30
-26.70
-18.04
-9.02
0.01
9.15
18.98
30.09
42.61
55.82
68.25
78.08
83.76
84.50
80.46
72.56
62.14
50.66
39.34
29.04
20.17
12.77
6.56
1.10
-4.08
-9.38
-15.12
-21.41
-28.07
-34.62
-40.35
-44.51
-46.68
-47.03
-46.33
-45.77
-46.43
-48.97
-53.43
-59.26
-65.61
-71.51
-76.12
-78.89
-79.63
-78.63
-76.47
-73.84
-71.10
-68.09
-64.15
-58.49
-50.58
-40.61
-29.53
-18.48
-8.30
0.91
9.38
17.39
24.67
30.51
34.00
34.44
31.73
26.36
18.99
10.00
-0.49
-12.46
-24.99
-36.45
-44.79
-48.00
-44.83
-35.15
-20.22
-2.03
17.10
36.56
56.14
75.60
94.30
111.25
125.43
135.70
142.13
145.27
148.90
156.25
168.71
185.25
203.33
220.48
234.37
245.24
253.84
265.18
282.63
306.50
334.01
361.40
386.24
406.66
424.42
441.07
462.53
491.60
526.75
562.66
593.63
616.91
631.67
641.90
613.24
524.99
375.63
186.10
-12.52
-193.93
-331.93
-432.80
-505.08
-556.89
-589.49
-604.18
-602.22
-587.15
-563.99
-537.61
-513.64
-493.46
-477.64
-461.71
-441.63
-415.59
-385.12
-353.75
-324.96
-302.28
-285.33
-272.72
-260.06
-243.80
-222.32
-196.59
-169.00
-141.85
-117.56
-96.25
-77.63
-59.99
-41.93
-22.72
-2.62
17.59
37.11
54.91
70.83
84.65
96.47
106.16
113.42
117.80
118.97
116.98
112.13
105.30
97.43
89.33
81.59
74.53
68.15
62.24
56.49
50.69
44.80
38.99
33.58
28.78
24.65
20.97
17.27
13.07
8.02
2.07
-4.47
-11.06
-17.11
-22.24
-26.41
-29.86
-33.03
-36.33
-39.95
-43.83
-47.68
-51.07
-53.62
-54.96
-54.73
-52.60
-48.30
-41.73
-33.14
-23.06
-12.16
-1.00
10.09
21.03
31.81
42.23
51.82
59.93
65.98
69.74
71.36
71.33
70.19
68.44
66.30
63.89
61.17
58.13
54.70
50.88
46.74
42.48
38.37
34.67
31.54
28.88
26.43
23.80
20.63
16.75
12.23
7.31
2.29
-2.64
-7.47
-12.34
-17.36
-22.55
-27.72
-32.50
-36.55
-39.65
-41.70
-42.72
-42.69
-41.36
-38.43
-33.31
-25.57
-15.05
-2.15
12.25
26.84
40.16
51.14
59.26
65.01
69.44
73.77
78.68
84.00
88.77
91.60
91.74
89.07
84.78
80.70
78.76
80.32
86.05
95.68
107.56
119.35
127.39
128.56
121.02
105.72
86.41
68.81
58.90
60.42
74.72
93.01
104.73
100.19
75.61
34.23
-16.12
-64.02
-106.96
-144.20
-175.63
-200.50
-218.40
-227.18
-226.39
-217.59
-204.06
-190.14
-178.68
-170.92
-165.61
-160.21
-151.94
-139.45
-123.13
-104.76
-86.99
-71.41
-58.83
-48.88
-40.65
-33.00
-25.32
-17.56
-10.12
-3.84
0.94
4.16
6.19
7.71
9.54
12.13
15.47
19.10
22.21
24.17
24.62
23.54
21.18
17.98
14.33
10.38
6.13
1.30
-4.29
-10.79
-18.10
-25.86
-33.39
-39.82
-44.20
-45.74
-44.01
-38.99
-31.13
-21.18
-10.03
1.49
12.72
23.16
32.44
40.28
46.43
50.73
53.09
53.57
52.38
49.91
46.65
43.13
39.80
36.94
34.58
32.60
30.79
29.00
27.25
25.66
24.39
23.45
22.65
21.63
19.95
17.27
13.42
8.50
2.80
-3.29
-9.40
-15.31
-20.93
-26.42
-32.02
-38.00
-44.52
-51.49
-58.49
-64.80
-69.42
-71.33
-69.72
-64.19
-54.86
-42.39
-27.73
-11.92
4.13
19.75
34.48
47.91
59.59
69.08
75.91
79.88
81.10
80.02
77.35
73.88
70.19
66.61
63.14
59.61
55.83
51.73
47.30
42.61
37.68
32.54
27.25
22.01
17.10
12.78
9.18
6.16
3.42
0.59
-2.69
-6.67
-11.53
-17.42
-24.39
-32.50
-41.72
-51.95
-63.00
-74.53
-85.89
-96.11
-103.87
-107.78
-106.76
-100.35
-88.89
-73.35
-55.12
-35.60
-16.09
2.39
19.03
33.14
44.25
52.14
56.89
58.82
58.47
56.40
53.16
49.22
44.98
40.70
36.51
32.40
28.29
24.15
20.04
16.07
12.32
8.76
5.16
1.25
-3.20
-8.14
-13.28
-18.22
-22.56
-26.14
-29.05
-31.57
-34.04
-36.83
-40.21
-44.44
-49.72
-56.14
-63.47
-71.14
-78.09
-83.00
-84.60
-81.99
-74.91
-63.71
-49.17
-32.27
-13.99
4.70
22.88
39.53
53.66
64.51
71.60
74.94
74.85
71.97
66.98
60.54
53.24
45.59
38.08
31.15
25.20
20.51
17.22
15.35
14.73
15.04
15.85
16.66
16.99
16.41
14.71
11.88
8.09
3.62
-1.29
-6.42
-11.59
-16.61
-21.22
-25.18
-28.40
-31.06
-33.56
-36.39
-39.75
-43.31
-46.19
-47.16
-45.10
-39.44
-30.30
-18.45
-4.96
9.16
23.21
36.78
49.61
61.45
71.82
80.12
85.83
88.66
88.70
86.41
82.47
77.59
72.38
67.31
62.75
58.99
56.33
54.94
54.80
55.57
56.71
57.59
57.82
57.33
56.46
55.74
55.74
56.69
58.36
60.06
60.73
59.27
54.80
46.85
35.29
20.24
1.77
-20.15
-45.65
-74.66
-106.70
-140.72
-175.02
-207.33
-234.85
-254.50
-263.35
-259.49
-242.75
-215.12
-180.36
-143.11
-107.67
-76.99
-52.51
-34.40
-22.16
-15.02
-12.02
-11.92
-13.17
-14.19
-13.70
-11.10
-6.50
-0.55
5.81
11.70
16.51
20.07
22.59
24.57
26.51
28.69
31.03
33.10
34.27
33.87
31.45
26.81
20.09
11.75
2.42
-7.10
-16.17
-24.31
-31.29
-37.02
-41.46
-44.52
-46.14
-46.30
-45.11
-42.71
-39.21
-34.45
-28.12
-19.85
-9.43
2.95
16.68
30.80
44.24
55.94
65.13
71.44
74.88
75.80
74.75
72.24
68.71
64.41
59.59
54.54
49.66
45.34
41.90
39.42
37.75
36.56
35.54
34.48
33.37
32.30
31.34
30.46
29.46
28.10
26.18
23.67
20.76
17.65
14.46
11.08
7.24
2.66
-2.81
-9.06
-15.81
-22.75
-29.66
-36.32
-42.39
-47.30
-50.24
-50.44
-47.37
-40.97
-31.64
-20.03
-6.89
7.05
21.01
34.19
45.66
54.58
60.37
62.89
62.44
59.68
55.35
50.12
44.55
39.02
33.86
29.38
25.80
23.22
21.49
20.29
19.15
17.69
15.73
13.37
10.89
8.51
6.33
4.16
1.66
-1.55
-5.67
-10.64
-16.18
-21.87
-27.38
-32.45
-36.98
-40.99
-44.56
-47.91
-51.26
-54.77
-58.31
-61.43
-63.29
-62.86
-59.23
-51.92
-41.04
-27.39
-12.19
3.14
17.28
29.30
38.68
45.33
49.39
51.14
50.85
48.82
45.37
40.97
36.16
31.49
27.41
24.13
21.58
19.56
17.80
16.09
14.34
12.55
10.70
8.77
6.62
4.12
1.21
-2.15
-5.90
-10.02
-14.49
-19.29
-24.32
-29.37
-34.20
-38.65
-42.66
-46.37
-50.06
-54.00
-58.33
-62.90
-67.20
-70.35
-71.27
-68.89
-62.56
-52.25
-38.70
-23.17
-7.15
8.01
21.35
32.34
40.75
46.56
49.84
50.80
49.80
47.35
43.95
40.09
36.10
32.20
28.52
25.16
22.28
20.00
18.37
17.31
16.53
15.74
14.63
13.05
10.95
8.39
5.36
1.81
-2.33
-7.10
-12.44
-18.23
-24.26
-30.33
-36.25
-41.83
-46.89
-51.37
-55.36
-59.11
-62.91
-66.81
-70.39
-72.77
-72.76
-69.30
-61.90
-50.79
-36.89
-21.44
-5.64
9.53
23.48
35.72
45.89
53.61
58.68
61.08
61.16
59.47
56.72
53.50
50.24
47.13
44.19
41.41
38.83
36.61
34.96
34.02
33.69
33.68
33.52
32.71
30.92
28.11
24.52
20.57
16.73
13.26
10.09
6.80
2.78
-2.54
-9.34
-17.25
-25.46
-33.05
-39.38
-44.37
-48.47
-52.43
-56.78
-61.51
-65.82
-68.29
-67.32
-61.65
-50.90
-35.67
-17.51
1.60
19.72
35.42
47.96
57.21
63.53
67.62
70.32
72.36
73.95
74.41
72.15
65.29
52.69
35.15
15.81
-0.36
-8.15
-4.04
12.47
38.57
69.18
98.59
122.00
136.39
140.45
134.12
117.98
93.10
61.22
25.06
-11.68
-44.86
-70.81
-87.26
-93.89
-92.23
-85.09
-75.92
-68.22
-65.21
-69.28
-81.37
-100.31
-122.49
-142.43
-154.10
-152.66
-135.84
-104.42
-61.72
-12.51
38.13
85.52
125.61
155.00
170.88
171.22
155.32
124.48
82.24
34.12
-13.42
-54.41
-84.69
-102.57
-108.63
-104.81
-93.43
-76.53
-55.74
-32.70
-9.34
12.08
29.38
40.97
46.30
45.97
41.33
34.05
25.64
16.98
8.41
-0.12
-8.69
-17.14
-25.09
-32.07
-37.80
-42.34
-46.13
-49.77
-53.80
-58.50
-63.77
-69.13
-73.76
-76.72
-77.11
-74.27
-68.00
-58.56
-46.63
-33.11
-18.91
-4.94
8.01
19.21
27.94
33.66
36.08
35.29
31.94
27.02
21.78
17.32
14.44
13.42
14.13
16.17
19.13
22.65
26.49
30.38
33.94
36.70
38.19
38.10
36.43
33.45
29.57
25.16
20.36
15.09
9.23
2.76
-4.07
-10.78
-16.79
-21.66
-25.27
-27.87
-30.04
-32.45
-35.67
-39.88
-44.77
-49.48
-52.81
-53.55
-51.02
-45.32
-37.47
-29.15
-21.99
-17.16
-15.05
-15.28
-17.14
-20.00
-23.62
-28.19
-34.18
-41.98
-51.81
-63.61
-76.70
-89.59
-99.94
-104.88
-101.77
-89.23
-67.60
-39.27
-8.16
21.59
46.50
64.56
75.17
78.99
77.43
72.55
66.49
61.03
57.42
55.68
54.80
53.05
49.00
40.91
29.20
16.63
7.37
5.49
12.53
27.99
48.80
71.27
92.08
109.33
122.62
130.41
133.09
132.12
129.62
127.70
128.17
132.18
140.26
152.06
166.27
181.09
194.16
203.07
205.73
200.88
188.40
169.68
147.40
125.08
106.35
93.52
86.62
83.36
80.08
73.23
60.87
43.30
22.67
2.06
-15.98
-30.27
-41.06
-49.42
-56.57
-63.31
-69.94
-76.44
-82.79
-89.15
-95.88
-103.14
-110.59
-117.33
-122.21
-124.26
-123.15
-119.29
-113.58
-107.00
-100.22
-93.41
-86.37
-78.74
-70.15
-60.37
-49.47
-37.82
-26.11
-15.26
-6.09
0.85
5.44
7.89
8.42
7.01
3.28
-3.24
-12.70
-24.51
-37.25
-49.01
-57.93
-62.87
-63.81
-61.78
-58.54
-55.87
-54.98
-56.14
-58.63
-61.22
-62.81
-63.06
-62.63
-63.12
-66.33
-73.56
-84.85
-98.77
-112.88
-124.67
-132.65
-136.98
-139.60
-143.28
-150.57
-162.65
-178.88
-196.92
-213.37
-224.38
-226.07
-215.05
-189.25
-149.20
-98.64
-44.12
7.00
49.18
80.77
104.00
122.85
139.84
153.79
160.22
154.18
133.97
103.40
70.97
46.34
36.21
41.73
58.91
81.39
103.87
124.06
142.39
159.91
176.07
187.88
190.97
181.89
159.81
127.01
87.96
47.77
10.62
-20.98
-46.19
-65.31
-79.07
-88.11
-92.79
-93.40
-90.52
-85.45
-80.14
-76.69
-76.38
-78.95
-82.55
-84.65
-83.34
-78.43
-71.45
-64.79
-60.30
-58.33
-57.77
-56.91
-54.75
-51.78
-49.76
-50.64
-55.37
-63.08
-71.51
-78.11
-81.25
-80.98
-78.64
-75.66
-72.44
-67.91
-60.10
-47.25
-29.04
-6.63
17.72
41.79
64.24
84.73
103.54
120.86
136.39
149.37
158.97
164.74
166.74
165.44
161.37
155.00
146.68
136.68
125.26
112.72
99.34
85.32
70.73
55.46
39.46
22.80
5.91
-10.49
-25.32
-37.49
-46.12
-50.81
-51.76
-49.47
-44.60
-37.71
-29.28
-19.77
-9.78
-0.18
8.17
14.57
18.72
20.74
21.09
20.40
19.26
18.11
17.14
16.41
15.83
15.27
14.63
13.81
12.74
11.43
9.87
8.15
6.39
4.73
3.29
2.05
0.81
-0.76
-3.03
-6.24
-10.40
-15.19
-20.15
-24.78
-28.80
-32.27
-35.51
-39.00
-43.05
-47.69
-52.54
-56.93
-60.02
-61.05
-59.48
-55.09
-47.99
-38.55
-27.39
-15.27
-3.02
8.51
18.65
26.96
33.32
37.86
40.86
42.58
43.16
42.67
41.20
38.97
36.37
33.90
32.00
30.91
30.54
30.57
30.53
30.01
28.84
26.98
24.59
21.84
18.89
15.88
12.92
10.07
7.32
4.56
1.62
-1.71
-5.49
-9.61
-13.79
-17.71
-21.19
-24.29
-27.25
-30.44
-34.05
-38.05
-42.06
-45.47
-47.54
-47.61
-45.29
-40.44
-33.27
-24.23
-14.02
-3.36
7.02
16.57
24.83
31.45
36.19
38.90
39.61
38.60
36.36
33.56
30.84
28.67
27.21
26.40
25.99
25.74
25.48
25.10
24.54
23.70
22.52
20.95
19.06
16.91
14.55
11.99
9.17
6.01
2.55
-1.10
-4.75
-8.20
-11.30
-14.00
-16.28
-18.18
-19.78
-21.28
-23.03
-25.43
-28.78
-33.04
-37.74
-41.98
-44.78
-45.27
-43.01
-37.99
-30.68
-21.77
-12.06
-2.34
6.77
14.81
21.55
26.88
30.80
33.35
34.59
34.63
33.72
32.20
30.46
28.80
27.40
26.27
25.35
24.59
23.97
23.48
23.13
22.87
22.58
22.14
21.40
20.26
18.63
16.46
13.70
10.40
6.63
2.56
-1.59
-5.58
-9.24
-12.51
-15.42
-18.12
-20.77
-23.49
-26.39
-29.52
-32.94
-36.62
-40.36
-43.71
-45.98
-46.44
-44.55
-40.22
-33.85
-26.17
-17.98
-9.93
-2.41
4.42
10.44
15.51
19.47
22.15
23.47
23.46
22.22
19.97
17.09
14.02
11.28
9.26
8.20
8.07
8.68
9.76
11.05
12.35
13.41
13.99
13.90
13.01
11.41
9.31
6.94
4.47
1.88
-0.93
-4.01
-7.27
-10.48
-13.32
-15.57
-17.19
-18.45
-19.74
-21.44
-23.72
-26.47
-29.33
-31.81
-33.47
-34.00
-33.25
-31.19
-27.81
-23.17
-17.45
-10.96
-4.12
2.63
8.93
14.53
19.25
22.94
25.41
26.54
26.37
25.14
23.21
21.00
18.78
16.69
14.83
13.27
12.20
11.75
11.97
12.66
13.52
14.17
14.30
13.79
12.62
10.87
8.61
5.98
3.11
0.21
-2.58
-5.19
-7.67
-10.11
-12.56
-14.96
-17.23
-19.33
-21.31
-23.34
-25.66
-28.43
-31.69
-35.21
-38.58
-41.22
-42.55
-42.09
-39.62
-35.23
-29.27
-22.21
-14.48
-6.39
1.78
9.73
17.03
23.17
27.66
30.24
30.97
30.17
28.37
26.09
23.74
21.63
19.93
18.75
18.13
18.04
18.35
18.84
19.24
19.26
18.74
17.66
16.13
14.39
12.65
11.04
9.53
7.99
6.21
4.08
1.56
-1.22
-4.07
-6.80
-9.32
-11.67
-13.96
-16.31
-18.81
-21.48
-24.30
-27.19
-30.01
-32.49
-34.20
-34.62
-33.23
-29.75
-24.25
-17.18
-9.25
-1.21
6.34
13.03
18.71
23.32
26.86
29.26
30.53
30.73
30.07
28.84
27.41
26.02
24.84
23.87
23.05
22.32
21.65
21.07
20.58
20.18
19.75
19.17
18.32
17.13
15.61
13.86
11.98
10.05
8.02
5.79
3.23
0.31
-2.95
-6.32
-9.56
-12.40
-14.73
-16.57
-18.12
-19.65
-21.40
-23.55
-26.18
-29.19
-32.36
-35.27
-37.43
-38.27
-37.31
-34.30
-29.25
-22.52
-14.73
-6.65
0.97
7.59
12.96
17.09
20.17
22.45
24.11
25.22
25.78
25.81
25.34
24.50
23.43
22.25
21.07
19.99
19.10
18.53
18.38
18.65
19.20
19.79
20.09
19.80
18.67
16.60
13.68
10.11
6.26
2.47
-0.95
-3.88
-6.36
-8.55
-10.63
-12.70
-14.80
-16.86
-18.81
-20.70
-22.64
-24.81
-27.35
-30.29
-33.49
-36.57
-39.00
-40.12
-39.36
-36.37
-31.17
-24.14
-15.96
-7.41
0.77
8.09
14.24
19.14
22.80
25.27
26.72
27.37
27.50
27.34
27.01
26.45
25.58
24.36
22.94
21.64
20.84
20.73
21.25
22.08
22.75
22.92
22.42
21.30
19.70
17.77
15.60
13.18
10.51
7.62
4.58
1.52
-1.41
-4.10
-6.51
-8.68
-10.81
-13.10
-15.77
-18.86
-22.26
-25.72
-29.00
-31.94
-34.48
-36.58
-38.08
-38.72
-38.12
-35.98
-32.18
-26.89
-20.50
-13.49
-6.30
0.80
7.64
14.07
19.86
24.64
27.97
29.55
29.39
27.84
25.53
23.08
20.94
19.23
17.89
16.79
15.90
15.34
15.21
15.48
15.98
16.40
16.45
15.99
15.04
13.79
12.41
11.08
9.84
8.59
7.15
5.27
2.82
-0.19
-3.52
-6.83
-9.79
-12.18
-14.02
-15.51
-16.96
-18.61
-20.59
-22.84
-25.24
-27.58
-29.66
-31.25
-32.07
-31.76
-30.02
-26.67
-21.74
-15.55
-8.69
-1.81
4.49
9.87
14.12
17.26
19.35
20.46
20.67
20.15
19.16
17.96
16.82
15.79
14.82
13.77
12.60
11.40
10.40
9.80
9.68
9.92
10.24
10.38
10.15
9.50
8.47
7.08
5.35
3.32
1.11
-1.04
-2.82
-4.02
-4.63
-4.87
-5.15
-5.94
-7.48
-9.77
-12.55
-15.44
-18.12
-20.53
-22.79
-25.09
-27.48
-29.71
-31.27
-31.53
-30.04
-26.70
-21.75
-15.70
-9.13
-2.52
3.75
9.43
14.26
18.07
20.75
22.34
22.99
22.97
22.51
21.80
20.83
19.53
17.81
15.73
13.46
11.37
9.78
8.90
8.70
8.96
9.38
9.68
9.71
9.44
8.91
8.13
7.06
5.63
3.83
1.78
-0.32
-2.26
-3.95
-5.40
-6.79
-8.34
-10.18
-12.32
-14.67
-17.10
-19.52
-21.93
-24.39
-26.90
-29.39
-31.66
-33.41
-34.27
-33.89
-32.02
-28.61
-23.85
-18.12
-11.89
-5.66
0.21
5.45
9.90
13.46
16.02
17.52
17.94
17.42
16.21
14.68
13.25
12.20
11.66
11.54
11.59
11.55
11.35
11.14
11.14
11.52
12.21
12.91
13.28
13.08
12.31
11.18
9.95
8.74
7.48
6.02
4.21
2.08
-0.22
-2.48
-4.55
-6.41
-8.15
-9.85
-11.53
-13.25
-15.03
-16.95
-19.10
-21.52
-24.05
-26.31
-27.77
-27.92
-26.39
-23.19
-18.62
-13.20
-7.54
-2.19
2.50
6.33
9.25
11.33
12.69
13.50
13.90
14.03
13.97
13.79
13.49
13.04
12.44
11.67
10.81
10.03
9.50
9.40
9.78
10.52
11.33
11.83
11.70
10.74
9.00
6.71
4.21
1.82
-0.28
-2.02
-3.42
-4.60
-5.67
-6.77
-8.02
-9.52
-11.31
-13.41
-15.76
-18.28
-20.96
-23.77
-26.68
-29.51
-31.92
-33.38
-33.40
-31.61
-28.00
-22.87
-16.74
-10.22
-3.87
1.89
6.81
10.77
13.75
15.77
16.86
17.12
16.67
15.66
14.32
12.89
11.63
10.73
10.23
10.03
9.97
9.89
9.69
9.40
9.03
8.60
8.08
7.37
6.40
5.17
3.77
2.34
0.98
-0.30
-1.56
-2.89
-4.38
-6.05
-7.86
-9.80
-11.85
-14.02
-16.37
-18.88
-21.50
-24.12
-26.60
-28.72
-30.27
-30.93
-30.36
-28.28
-24.51
-19.15
-12.59
-5.43
1.59
7.80
12.77
16.32
18.56
19.75
20.22
20.25
20.02
19.58
18.93
18.07
17.05
15.97
15.00
14.28
13.92
13.94
14.23
14.61
14.88
14.85
14.38
13.44
12.03
10.21
8.07
5.71
3.30
0.96
-1.22
-3.29
-5.35
-7.53
-9.85
-12.23
-14.53
-16.64
-18.59
-20.55
-22.77
-25.48
-28.68
-32.05
-34.99
-36.77
-36.78
-34.69
-30.66
-25.15
-18.83
-12.29
-5.95
-0.05
5.26
9.82
13.45
15.99
17.43
17.91
17.77
17.31
16.77
16.25
15.73
15.17
14.57
14.00
13.59
13.47
13.74
14.30
15.00
15.54
15.63
15.09
13.91
12.29
10.50
8.79
7.24
5.72
4.02
1.97
-0.47
-3.17
-5.93
-8.64
-11.28
-13.98
-16.85
-19.93
-23.12
-26.20
-28.91
-31.05
-32.41
-32.72
-31.69
-29.07
-24.75
-18.93
-12.10
-4.96
1.78
7.64
12.42
16.16
19.01
21.12
22.53
23.24
23.30
22.79
21.90
20.87
19.90
19.14
18.64
18.35
18.14
17.91
17.55
17.05
16.43
15.71
14.88
13.90
12.73
11.33
9.69
7.79
5.63
3.16
0.38
-2.63
-5.74
-8.78
-11.60
-14.11
-16.37
-18.44
-20.46
-22.61
-25.02
-27.71
-30.53
-33.09
-34.77
-34.98
-33.26
-29.49
-23.97
-17.31
-10.24
-3.43
2.67
7.86
12.11
15.48
18.02
19.71
20.57
20.60
19.93
18.81
17.59
16.61
16.13
16.21
16.73
17.44
18.03
18.27
18.05
17.41
16.41
15.13
13.59
11.79
9.79
7.65
5.47
3.30
1.12
-1.16
-3.64
-6.39
-9.36
-12.36
-15.20
-17.72
-19.88
-21.82
-23.79
-26.04
-28.77
-31.90
-35.04
-37.58
-38.75
-37.92
-34.78
-29.41
-22.25
-14.01
-5.45
2.78
10.16
16.44
21.45
25.14
27.47
28.46
28.21
26.97
25.10
23.05
21.22
19.86
19.03
18.67
18.63
18.80
19.13
19.55
19.95
20.18
20.07
19.49
18.48
17.16
15.66
14.01
12.06
9.63
6.58
2.99
-0.89
-4.68
-8.04
-10.75
-12.81
-14.44
-15.96
-17.69
-19.86
-22.56
-25.72
-29.10
-32.36
-35.04
-36.58
-36.44
-34.22
-29.73
-23.21
-15.28
-6.79
1.42
8.72
14.81
19.60
23.13
25.49
26.74
27.00
26.56
25.70
24.69
23.66
22.61
21.49
20.31
19.18
18.28
17.78
17.72
17.97
18.29
18.41
18.01
16.89
14.98
12.39
9.50
6.73
4.38
2.47
0.66
-1.53
-4.43
-8.01
-11.84
-15.33
-18.09
-20.08
-21.66
-23.33
-25.51
-28.34
-31.74
-35.43
-39.03
-42.06
-43.90
-43.92
-41.58
-36.72
-29.60
-20.93
-11.63
-2.59
5.50
12.26
17.55
21.36
23.77
24.93
25.06
24.43
23.33
21.99
20.57
19.12
17.70
16.35
15.16
14.24
13.66
13.47
13.63
14.02
14.46
14.69
14.43
13.46
11.67
9.14
6.10
2.87
-0.26
-3.14
-5.75
-8.17
-10.50
-12.77
-14.98
-17.05
-19.00
-20.91
-22.95
-25.30
-28.04
-31.13
-34.34
-37.37
-39.80
-41.22
-41.21
-39.41
-35.62
-29.84
-22.40
-13.89
-5.07
3.38
10.93
17.26
22.22
25.77
27.97
28.95
28.95
28.28
27.26
26.13
25.02
23.99
23.07
22.33
21.85
21.69
21.80
22.07
22.27
22.23
21.86
21.19
20.28
19.16
17.75
15.89
13.50
10.59
7.43
4.33
1.58
-0.72
-2.73
-4.73
-6.98
-9.54
-12.32
-15.14
-17.85
-20.41
-22.93
-25.47
-28.10
-30.73
-33.15
-34.99
-35.79
-35.11
-32.63
-28.27
-22.22
-14.91
-6.95
1.05
8.52
15.02
20.30
24.24
26.88
28.33
28.75
28.26
26.98
25.05
22.69
20.22
17.99
16.33
15.38
15.07
15.19
15.44
15.55
15.38
14.88
14.06
12.95
11.54
9.79
7.68
5.23
2.53
-0.30
-3.11
-5.84
-8.47
-11.08
-13.71
-16.40
-19.07
-21.63
-23.99
-26.17
-28.33
-30.66
-33.36
-36.45
-39.71
-42.68
-44.75
-45.32
-43.91
-40.35
-34.72
-27.50
-19.36
-11.04
-3.21
3.76
9.74
14.83
19.11
22.56
24.95
26.08
25.86
24.49
22.44
20.27
18.45
17.21
16.54
16.28
16.25
16.40
16.74
17.31
17.98
18.51
18.55
17.83
16.25
14.00
11.44
8.96
6.75
4.74
2.71
0.46
-2.05
-4.65
-7.04
-9.07
-10.76
-12.36
-14.16
-16.31
-18.78
-21.43
-24.09
-26.71
-29.33
-31.91
-34.23
-35.79
-35.95
-34.15
-30.14
-24.06
-16.46
-8.06
0.44
8.43
15.49
21.28
25.58
28.26
29.32
29.01
27.74
26.08
24.52
23.37
22.69
22.30
21.97
21.48
20.77
19.91
19.05
18.36
17.90
17.65
17.43
17.00
16.12
14.62
12.48
9.82
6.88
3.89
1.01
-1.72
-4.34
-6.93
-9.48
-12.01
-14.51
-17.04
-19.68
-22.54
-25.64
-28.93
-32.31
-35.67
-38.83
-41.54
-43.42
-43.97
-42.79
-39.61
-34.50
-27.86
-20.26
-12.29
-4.45
2.84
9.27
14.63
18.83
21.90
23.99
25.27
25.85
25.75
25.00
23.71
22.10
20.53
19.36
18.87
19.20
20.35
22.16
24.37
26.60
28.50
29.87
30.79
31.65
33.02
35.29
38.23
40.98
42.16
40.46
35.10
26.22
14.73
1.89
-11.18
-23.78
-35.63
-46.55
-56.33
-64.69
-71.49
-76.84
-81.11
-84.54
-86.97
-87.61
-85.30
-79.02
-68.30
-53.51
-35.73
-16.40
3.04
21.32
37.49
50.71
60.37
66.20
68.48
67.96
65.78
63.09
60.68
58.84
57.38
55.90
54.11
52.00
49.78
47.78
46.25
45.27
44.82
44.80
45.01
45.09
44.41
42.24
37.97
31.42
23.03
13.66
4.27
-4.47
-12.44
-19.94
-27.35
-34.80
-42.09
-48.79
-54.56
-59.37
-63.51
-67.43
-71.55
-75.98
-80.55
-84.76
-87.99
-89.54
-88.89
-85.75
-80.11
-72.26
-62.60
-51.65
-39.89
-27.87
-16.18
-5.48
3.67
10.94
16.31
20.04
22.55
24.25
25.37
26.04
26.31
26.29
26.13
26.02
26.09
26.39
26.92
27.68
28.70
29.97
31.35
32.59
33.34
33.27
32.17
30.04
27.09
23.61
19.90
16.04
11.98
7.55
2.68
-2.48
-7.57
-12.09
-15.61
-17.96
-19.26
-19.87
-20.27
-20.91
-22.11
-23.97
-26.31
-28.75
-30.63
-31.26
-30.08
-26.87
-21.81
-15.46
-8.52
-1.70
4.39
9.35
12.94
15.13
16.07
16.02
15.30
14.19
12.90
11.52
10.10
8.66
7.28
6.05
5.07
4.43
4.17
4.36
5.00
6.04
7.30
8.56
9.45
9.62
8.82
6.96
4.18
0.81
-2.75
-6.13
-9.20
-11.99
-14.66
-17.30
-19.87
-22.17
-23.94
-25.05
-25.54
-25.66
-25.75
-26.18
-27.18
-28.79
-30.84
-32.89
-34.37
-34.58
-32.97
-29.26
-23.58
-16.43
-8.56
-0.70
6.57
12.96
18.47
23.30
27.81
32.35
37.17
42.38
47.91
53.48
58.67
62.94
65.72
66.50
64.92
60.81
54.22
45.33
34.41
21.76
7.81
-6.82
-21.25
-34.42
-45.38
-53.51
-58.71
-61.25
-61.60
-60.17
-57.26
-53.11
-48.01
-42.31
-36.38
-30.49
-24.72
-19.11
-13.79
-8.98
-4.86
-1.46
1.44
4.19
7.08
10.18
13.47
16.86
20.46
24.58
29.52
35.39
41.96
48.83
55.60
61.84
66.92
69.91
69.74
65.79
58.45
49.24
40.40
33.91
30.56
29.61
29.20
27.32
22.79
15.65
6.92
-1.96
-9.85
-16.15
-20.72
-23.61
-24.90
-24.69
-23.10
-20.47
-17.41
-14.74
-13.22
-13.31
-15.00
-17.73
-20.66
-22.91
-23.95
-23.71
-22.68
-21.57
-21.04
-21.41
-22.46
-23.57
-23.98
-23.10
-20.74
-17.08
-12.49
-7.29
-1.63
4.61
11.71
19.86
28.96
38.53
47.77
55.73
61.62
65.09
66.40
66.32
65.95
66.38
68.45
72.62
78.93
86.87
95.31
102.59
106.86
106.77
102.01
93.50
82.88
71.60
59.91
46.69
30.11
8.84
-16.79
-44.65
-71.60
-94.85
-112.95
-126.02
-135.08
-141.03
-144.14
-144.10
-140.77
-134.73
-127.36
-120.36
-114.85
-110.80
-107.13
-102.23
-94.73
-83.94
-70.02
-53.73
-36.10
-18.16
-0.84
15.05
28.79
39.89
48.07
53.31
55.76
55.73
53.61
49.81
44.76
38.91
32.77
26.84
21.53
17.14
13.72
11.16
9.23
7.72
6.50
5.56
4.92
4.62
4.66
5.08
5.96
7.40
9.46
12.08
15.05
18.05
20.70
22.75
24.09
24.77
24.86
24.45
23.49
21.92
19.57
16.43
12.52
7.98
3.03
-2.06
-6.98
-11.39
-14.95
-17.43
-18.75
-18.99
-18.38
-17.15
-15.39
-13.01
-9.70
-5.04
1.34
9.48
18.97
28.87
37.90
44.76
48.55
48.98
46.51
42.10
36.87
31.78
27.47
24.23
22.08
20.91
20.56
20.85
21.60
22.65
23.86
25.14
26.44
27.56
28.20
27.88
26.06
22.36
16.69
9.42
1.32
-6.67
-13.70
-19.26
-23.27
-25.96
-27.79
-29.30
-31.03
-33.59
-37.49
-43.02
-50.04
-57.89
-65.48
-71.65
-75.52
-76.75
-75.64
-72.82
-68.99
-64.73
-60.36
-56.03
-51.87
-48.00
-44.57
-41.66
-39.24
-37.05
-34.72
-31.90
-28.33
-24.02
-19.18
-14.13
-9.11
-4.17
0.86
6.11
11.60
17.11
22.23
26.56
29.84
32.04
33.30
33.78
33.61
32.82
31.40
29.33
26.63
23.27
19.20
14.36
8.71
2.31
-4.68
-11.95
-19.17
-25.96
-32.04
-37.14
-41.15
-44.06
-45.95
-46.92
-46.98
-45.98
-43.68
-39.84
-34.45
-27.82
-20.60
-13.58
-7.52
-2.91
0.15
1.90
2.81
3.42
4.15
5.18
6.43
7.56
8.24
8.25
7.64
6.75
6.07
6.00
6.67
7.84
9.05
9.78
9.74
8.96
7.83
6.85
6.56
7.23
8.88
11.22
13.82
16.23
18.21
19.68
20.70
21.37
21.63
21.30
20.10
17.78
14.20
9.46
3.86
-2.12
-7.81
-12.47
-15.49
-16.50
-15.59
-13.22
-10.03
-6.58
-3.08
0.56
4.52
8.82
13.18
17.14
20.31
22.59
24.27
25.83
27.81
30.59
34.31
38.93
44.29
50.12
56.03
61.51
65.98
68.96
70.22
69.87
68.33
66.07
63.32
59.88
55.12
48.33
39.17
28.02
16.01
4.64
-4.81
-11.60
-15.71
-17.64
-18.13
-18.08
-18.39
-19.95
-23.46
-29.17
-36.68
-44.89
-52.31
-57.38
-58.78
-55.68
-47.91
-36.02
-21.33
-5.73
8.73
20.29
27.99
31.74
32.15
30.09
26.34
21.32
15.06
7.34
-2.11
-13.41
-26.33
-40.25
-54.16
-66.86
-77.31
-84.84
-89.29
-90.91
-90.14
-87.42
-83.17
-77.74
-71.60
-65.24
-59.10
-53.44
-48.26
-43.33
-38.40
-33.33
-28.19
-23.22
-18.68
-14.73
-11.40
-8.56
-6.08
-3.85
-1.85
-0.09
1.42
2.66
3.66
4.40
4.96
5.44
6.05
7.11
8.92
11.69
15.42
19.93
24.85
29.74
34.17
37.83
40.51
42.10
42.55
41.85
40.05
37.27
33.77
29.87
25.95
22.43
19.64
17.74
16.73
16.39
16.40
16.46
16.39
16.19
15.93
15.69
15.42
14.93
13.98
12.43
10.36
8.01
5.65
3.32
0.91
-1.86
-5.14
-8.85
-12.70
-16.33
-19.57
-22.41
-25.03
-27.57
-30.05
-32.32
-34.21
-35.60
-36.42
-36.60
-35.96
-34.19
-31.02
-26.31
-20.20
-13.07
-5.48
1.98
8.81
14.64
19.24
22.56
24.69
25.83
26.26
26.22
25.88
25.32
24.57
23.63
22.59
21.57
20.69
20.05
19.67
19.51
19.51
19.59
19.64
19.51
19.02
17.98
16.36
14.25
11.85
9.38
7.00
4.77
2.63
0.56
-1.48
-3.40
-5.20
-6.88
-8.56
-10.41
-12.56
-15.09
-17.98
-21.09
-24.22
-27.02
-29.06
-29.88
-29.15
-26.71
-22.69
-17.37
-11.16
-4.44
2.41
9.04
15.14
20.37
24.46
27.32
28.99
29.66
29.61
29.05
28.13
26.94
25.57
24.16
22.91
21.94
21.34
21.07
21.05
21.14
21.19
21.04
20.55
19.63
18.26
16.49
14.46
12.27
10.02
7.71
5.24
2.49
-0.58
-3.95
-7.40
-10.63
-13.30
-15.23
-16.49
-17.43
-18.61
-20.51
-23.32
-26.80
-30.34
-33.20
-34.78
-34.75
-33.02
-29.72
-25.04
-19.21
-12.58
-5.57
1.32
7.63
12.96
17.12
20.04
21.78
22.49
22.33
21.50
20.19
18.59
16.88
15.24
13.87
12.99
12.73
13.12
14.03
15.20
16.26
16.96
17.12
16.69
15.75
14.37
12.63
10.60
8.39
6.13
3.95
1.96
0.15
-1.58
-3.36
-5.28
-7.31
-9.32
-11.19
-12.87
-14.44
-16.10
-18.03
-20.34
-22.95
-25.58
-27.84
-29.29
-29.54
-28.35
-25.68
-21.60
-16.37
-10.29
-3.77
2.75
8.75
13.76
17.39
19.48
20.20
19.96
19.27
18.57
18.07
17.76
17.49
17.16
16.73
16.31
16.01
15.89
15.88
15.83
15.58
15.06
14.24
13.17
11.89
10.45
8.92
7.41
5.98
4.68
3.45
2.15
0.61
-1.25
-3.36
-5.54
-7.53
-9.16
-10.43
-11.49
-12.56
-13.84
-15.40
-17.18
-19.11
-21.09
-23.01
-24.74
-26.01
-26.41
-25.54
-23.13
-19.16
-13.89
-7.82
-1.48
4.60
10.02
14.47
17.75
19.76
20.52
20.22
19.13
17.60
15.92
14.27
12.80
11.60
10.75
10.32
10.32
10.69
11.25
11.84
12.32
12.62
12.67
12.42
11.77
10.68
9.21
7.48
5.70
3.97
2.28
0.49
-1.49
-3.65
-5.78
-7.63
-9.03
-10.00
-10.76
-11.55
-12.58
-13.89
-15.40
-16.99
-18.61
-20.24
-21.90
-23.41
-24.39
-24.34
-22.80
-19.55
-14.79
-9.08
-3.17
2.27
6.84
10.43
13.17
15.20
16.60
17.38
17.54
17.09
16.09
14.65
12.88
10.96
9.12
7.65
6.77
6.58
7.00
7.77
8.58
9.20
9.50
9.53
9.35
9.02
8.51
7.79
6.81
5.59
4.21
2.76
1.30
-0.13
-1.61
-3.20
-4.95
-6.81
-8.60
-10.14
-11.28
-12.03
-12.59
-13.23
-14.12
-15.32
-16.62
-17.73
-18.33
-18.17
-17.13
-15.12
-12.14
-8.24
-3.56
1.59
6.78
11.46
15.16
17.55
18.52
18.19
16.92
15.18
13.40
11.84
10.61
9.58
8.63
7.66
6.75
6.05
5.73
5.86
6.35
6.97
7.46
7.54
7.05
5.94
4.25
2.17
-0.08
-2.21
-4.05
-5.51
-6.67
-7.71
-8.85
-10.20
-11.82
-13.60
-15.39
-17.06
-18.50
-19.67
-20.67
-21.66
-22.82
-24.23
-25.75
-27.01
-27.52
-26.83
-24.68
-21.19
-16.71
-11.71
-6.62
-1.73
2.81
6.87
10.32
12.96
14.69
15.51
15.57
15.14
14.47
13.74
13.06
12.46
11.92
11.44
11.03
10.65
10.27
9.84
9.33
8.72
7.99
7.14
6.17
5.07
3.95
2.89
1.97
1.15
0.32
-0.74
-2.20
-4.07
-6.18
-8.27
-10.13
-11.68
-13.01
-14.32
-15.78
-17.45
-19.22
-20.92
-22.31
-23.16
-23.28
-22.53
-20.79
-18.08
-14.50
-10.18
-5.32
-0.08
5.34
10.67
15.63
19.90
23.26
25.65
27.19
28.17
28.90
29.60
30.27
30.76
30.85
30.44
29.59
28.51
27.62
27.43
28.38
30.60
33.90
37.82
41.76
45.25
48.20
51.03
54.63
59.93
67.35
76.37
85.47
92.52
95.50
93.22
85.65
73.80
59.26
43.68
28.44
14.52
2.44
-7.79
-16.77
-25.56
-35.26
-46.28
-57.86
-68.14
-74.84
-76.28
-72.13
-63.59
-52.84
-42.21
-33.54
-27.86
-25.70
-27.22
-32.31
-40.32
-49.95
-59.32
-66.49
-70.13
-70.08
-67.38
-63.80
-61.05
-60.11
-60.94
-62.63
-63.89
-63.53
-60.85
-55.72
-48.54
-39.97
-30.72
-21.45
-12.69
-4.82
1.87
7.23
11.13
13.54
14.55
14.43
13.59
12.53
11.78
11.71
12.47
13.88
15.47
16.69
17.06
16.42
14.99
13.37
12.30
12.51
14.50
18.40
24.07
31.13
39.14
47.69
56.44
65.09
73.21
80.25
85.50
88.16
87.64
83.76
76.92
68.08
58.54
49.63
42.31
37.08
33.94
32.59
32.59
33.35
34.18
34.24
32.68
28.85
22.57
14.29
4.83
-4.87
-14.17
-23.00
-31.64
-40.44
-49.48
-58.44
-66.73
-73.81
-79.40
-83.68
-87.18
-90.67
-94.99
-100.83
-108.61
-118.29
-129.41
-141.03
-151.93
-160.83
-166.69
-168.86
-167.13
-161.73
-153.26
-142.56
-130.57
-118.10
-105.77
-93.88
-82.52
-71.61
-61.05
-50.84
-41.18
-32.46
-25.08
-19.38
-15.44
-12.90
-11.03
-8.82
-5.29
0.26
8.03
17.64
28.32
39.10
49.10
57.75
64.84
70.53
75.23
79.40
83.43
87.50
91.50
95.07
97.72
99.01
98.76
97.14
94.62
91.87
89.57
88.13
87.61
87.60
87.35
85.92
82.34
76.11
67.44
57.30
46.98
37.74
30.30
24.78
20.99
18.24
16.04
14.14
12.40
10.56
8.15
4.78
0.50
-3.97
-7.97
-11.00
-13.04
-14.79
-17.63
-23.13
-32.37
-45.25
-60.37
-76.33
-91.92
-106.29
-118.99
-129.79
-138.55
-145.17
-149.71
-147.98
-137.71
-118.89
-92.99
-61.41
-24.61
17.01
61.55
104.72
141.07
166.86
180.12
181.47
173.67
160.17
143.73
125.71
106.45
85.64
63.66
41.72
21.91
6.45
-3.48
-8.49
-10.78
-13.14
-17.37
-23.78
-31.20
-37.55
-41.11
-41.46
-39.68
-37.54
-36.41
-36.57
-37.31
-37.54
-36.19
-32.66
-26.97
-19.90
-12.67
-6.51
-2.11
0.86
3.72
8.46
16.86
29.51
45.26
61.54
75.18
83.48
84.99
79.65
68.66
54.06
38.31
23.81
12.49
5.51
3.12
4.68
8.83
13.83
17.89
19.57
18.12
13.73
7.52
1.16
-3.76
-6.35
-6.70
-5.65
-4.23
-2.95
-1.58
0.69
4.70
10.75
18.33
26.27
33.18
37.86
39.67
38.49
34.69
28.94
22.11
15.09
8.66
3.27
-1.11
-4.97
-9.03
-13.89
-19.80
-26.48
-33.32
-39.57
-44.55
-47.73
-48.76
-47.54
-44.38
-40.07
-35.78
-32.71
-31.70
-32.73
-34.82
-36.19
-34.99
-30.02
-21.35
-10.40
0.44
8.63
12.23
10.52
4.12
-5.33
-15.63
-24.78
-31.43
-35.19
-36.68
-37.04
-37.27
-37.65
-37.66
-36.20
-32.19
-25.29
-16.00
-5.91
3.11
9.67
13.27
14.09
12.78
10.19
7.13
4.63
2.94
1.79
0.66
-1.00
-3.86
-8.13
-13.48
-19.02
-23.04
-24.83
-24.45
-22.33
-19.20
-16.26
-14.69
-15.58
-19.79
-26.92
-37.10
-50.31
-65.97
-78.74
-83.44
-76.64
-58.70
-39.18
-22.56
-11.35
-7.02
-8.21
-13.69
-22.03
-31.46
-40.40
-47.90
-52.86
-55.70
-57.18
-57.75
-57.58
-57.22
-57.72
-60.34
-65.66
-72.07
-76.94
-76.81
-68.43
-50.12
-22.60
11.09
46.63
79.68
107.28
127.47
139.52
144.04
142.75
138.43
134.53
134.75
141.99
157.34
178.90
201.88
220.03
227.72
222.04
203.78
177.08
147.65
120.59
98.74
82.07
68.57
55.67
41.62
26.08
10.12
-4.65
-16.81
-25.53
-31.00
-34.15
-36.47
-39.53
-44.76
-53.20
-65.31
-80.88
-98.83
-117.40
-134.36
-147.36
-154.39
-154.13
-146.22
-131.21
-110.59
-86.43
-61.14
-37.08
-16.36
-0.77
8.34
10.26
5.34
-4.73
-17.07
-28.42
-36.11
-38.88
-37.09
-32.08
-25.10
-16.59
-6.10
6.95
22.30
38.35
52.44
61.88
65.11
62.19
54.67
44.82
34.77
25.91
18.67
12.74
7.45
2.18
-3.33
-8.84
-13.86
-17.83
-20.52
-22.26
-23.86
-26.11
-29.26
-32.64
-34.83
-34.24
-29.84
-21.78
-11.36
-0.49
9.02
15.99
20.16
21.86
21.56
19.59
16.24
12.10
8.47
7.07
9.30
15.32
23.55
31.05
34.80
33.10
26.43
17.29
8.99
4.11
3.53
6.25
10.10
12.86
13.08
10.43
5.64
-0.03
-5.21
-8.91
-10.81
-11.22
-10.86
-10.45
-10.44
-10.87
-11.60
-12.57
-13.98
-16.30
-19.97
-25.21
-31.88
-39.53
-47.54
-55.18
-61.63
-66.04
-67.72
-66.34
-62.10
-55.58
-47.41
-38.01
-27.54
-16.15
-4.27
7.47
18.58
29.22
40.39
53.42
69.08
86.88
104.84
120.20
130.54
134.64
132.79
126.21
116.45
104.91
92.95
81.97
73.42
68.30
66.72
67.53
68.66
67.88
63.60
55.36
43.71
29.77
14.73
-0.31
-14.19
-25.65
-33.48
-37.05
-36.84
-34.57
-32.63
-33.20
-37.29
-44.28
-52.11
-58.13
-60.24
-57.73
-51.53
-43.78
-36.80
-32.13
-29.89
-28.90
-27.38
-23.76
-17.41
-8.71
1.18
10.67
18.05
21.82
21.08
16.04
8.44
1.31
-2.04
0.37
7.84
16.81
22.14
19.46
7.30
-12.12
-33.70
-51.73
-62.08
-63.55
-57.67
-47.55
-36.34
-26.26
-18.44
-13.31
-11.31
-13.02
-19.01
-29.17
-42.40
-56.58
-69.22
-78.30
-83.04
-84.08
-82.97
-81.31
-79.79
-77.93
-74.24
-67.13
-55.73
-40.47
-23.02
-5.61
9.75
22.03
31.37
38.88
46.10
54.21
63.60
73.58
82.56
88.51
89.70
85.33
75.99
63.56
50.72
40.19
33.99
32.90
36.31
42.52
49.30
54.60
57.14
56.61
53.60
49.12
44.18
39.35
34.58
29.18
22.04
12.00
-1.76
-19.28
-39.72
-61.55
-82.96
-102.45
-119.20
-133.06
-144.05
-151.98
-156.25
-156.26
-152.10
-145.03
-137.34
-131.55
-129.18
-129.92
-131.71
-131.71
-127.67
-118.92
-106.63
-93.12
-80.76
-71.10
-64.44
-60.10
-56.91
-53.67
-49.42
-43.41
-35.23
-24.90
-12.98
-0.62
10.68
19.37
24.41
25.49
23.09
18.30
12.49
6.98
2.68
-0.14
-1.95
-3.98
-7.89
-15.25
-26.77
-41.63
-57.25
-69.60
-74.29
-67.98
-49.64
-21.17
13.12
47.78
77.93
100.45
114.43
120.95
122.32
121.35
120.86
123.22
129.88
140.89
154.64
168.32
178.95
184.63
185.28
182.49
178.63
175.63
174.41
174.85
176.40
178.49
180.65
182.29
182.36
179.53
172.58
161.18
146.12
129.23
112.62
97.87
85.52
75.05
65.29
55.02
43.46
30.51
16.56
2.24
-12.01
-25.91
-39.44
-52.67
-65.64
-78.47
-91.27
-104.16
-117.07
-129.67
-141.27
-151.00
-158.07
-162.00
-162.76
-160.71
-156.42
-150.39
-142.97
-134.25
-124.24
-112.94
-100.36
-86.57
-71.68
-55.93
-39.73
-23.73
-8.80
4.17
14.49
21.92
26.70
29.50
31.08
32.04
32.66
32.89
32.55
31.50
29.85
28.00
26.53
26.04
26.95
29.25
32.50
35.86
38.37
39.17
37.74
34.06
28.57
21.98
15.07
8.47
2.56
-2.59
-7.08
-11.17
-15.08
-19.00
-23.07
-27.36
-31.95
-36.82
-41.76
-46.33
-49.91
-51.81
-51.51
-48.80
-43.90
-37.32
-29.73
-21.73
-13.74
-6.04
1.10
7.36
12.29
15.55
17.00
16.87
15.67
14.05
12.51
11.32
10.47
9.90
9.59
9.69
10.30
11.44
12.85
14.15
14.93
14.98
14.43
13.68
13.31
13.84
15.58
18.41
21.78
24.92
27.08
27.81
27.21
25.83
24.49
23.92
24.51
26.11
28.10
29.42
28.99
26.01
20.36
12.75
4.61
-2.35
-6.75
-8.05
-6.62
-3.43
0.43
4.32
8.23
12.67
18.24
25.20
33.25
41.68
49.67
56.57
62.03
65.94
68.23
68.95
68.34
67.09
66.28
66.95
69.37
72.40
73.60
69.91
59.13
40.97
17.54
-7.28
-29.08
-44.38
-51.40
-50.25
-42.37
-29.98
-15.60
-1.87
8.63
13.83
12.74
5.98
-4.22
-14.66
-22.21
-25.02
-23.01
-17.68
-11.20
-5.43
-1.37
0.91
1.79
1.65
0.64
-1.20
-3.82
-7.04
-10.67
-14.67
-19.19
-24.43
-30.33
-36.45
-42.09
-46.63
-49.80
-51.86
-53.27
-54.26
-54.67
-54.00
-51.93
-48.63
-44.96
-42.00
-40.56
-40.66
-41.68
-42.75
-43.31
-43.35
-43.26
-43.37
-43.60
-43.44
-42.27
-39.88
-36.67
-33.47
-31.05
-29.61
-28.71
-27.59
-25.60
-22.65
-19.25
-16.20
-14.14
-13.20
-13.05
-13.10
-12.85
-11.95
-10.24
-7.54
-3.53
2.13
9.55
18.50
28.27
37.96
46.76
54.17
60.12
64.82
68.54
71.44
73.51
74.66
74.92
74.52
73.84
73.26
73.09
73.37
73.95
74.61
75.12
75.38
75.33
74.93
74.07
72.50
69.87
65.88
60.41
53.59
45.88
37.86
30.07
22.84
16.23
10.08
4.17
-1.70
-7.47
-12.86
-17.43
-20.79
-22.81
-23.69
-24.02
-24.43
-25.35
-26.72
-27.95
-28.20
-26.84
-23.78
-19.58
-15.17
-11.39
-8.63
-6.74
-5.30
-3.96
-2.74
-1.98
-2.10
-3.21
-5.01
-6.85
-8.14
-8.67
-8.74
-8.92
-9.82
-11.68
-14.26
-17.03
-19.38
-21.00
-21.93
-22.51
-23.13
-24.04
-25.22
-26.51
-27.65
-28.52
-29.11
-29.52
-29.78
-29.89
-29.76
-29.34
-28.67
-27.84
-26.92
-25.92
-24.82
-23.68
-22.67
-22.05
-21.96
-22.24
-22.48
-22.12
-20.78
-18.49
-15.72
-13.11
-11.08
-9.64
-8.37
-6.71
-4.29
-1.17
2.20
5.20
7.28
8.14
7.69
6.03
3.51
0.77
-1.13
-1.01
1.82
6.99
12.92
17.31
18.12
14.58
7.45
-1.46
-10.41
-18.87
-27.77
-38.74
-52.89
-69.86
-87.65
-103.39
-114.48
-119.30
-117.81
-111.12
-100.71
-87.89
-73.66
-58.95
-45.03
-33.60
-26.06
-23.36
-25.53
-31.46
-39.54
-48.21
-56.15
-61.90
-63.32
-57.24
-40.81
-12.92
25.07
69.01
112.91
150.54
177.39
188.83
184.30
166.34
137.40
100.76
60.45
20.83
-14.21
-42.01
-61.63
-73.40
-78.81
-79.81
-77.89
-74.02
-68.67
-62.24
-55.11
-47.80
-40.70
-34.36
-29.52
-26.64
-25.89
-27.05
-29.54
-32.56
-35.30
-36.95
-37.11
-35.73
-32.84
-28.52
-22.89
-16.21
-8.89
-1.44
5.78
12.51
18.69
24.43
29.92
35.34
40.83
46.55
52.63
59.11
65.63
71.47
75.61
77.09
75.33
70.41
63.00
54.21
45.19
36.91
29.94
24.50
20.50
17.61
15.42
13.46
11.46
9.39
7.47
5.91
4.59
2.90
-0.09
-5.16
-12.57
-21.87
-32.16
-42.46
-51.88
-59.53
-64.32
-64.93
-60.24
-50.08
-35.66
-19.48
-4.50
7.05
14.54
19.08
22.74
27.37
33.49
39.89
43.97
42.87
34.86
20.33
2.03
-15.75
-28.73
-34.09
-31.19
-21.39
-7.04
9.60
26.94
44.12
60.67
76.21
90.49
103.43
115.18
125.74
134.79
141.51
144.92
144.60
140.98
135.27
128.68
121.60
113.19
101.86
86.37
66.87
45.43
25.44
10.29
1.87
-0.25
1.41
3.36
2.50
-2.81
-12.56
-25.54
-40.20
-55.33
-70.38
-85.06
-98.90
-110.83
-119.24
-122.55
-119.88
-111.49
-98.73
-83.55
-67.79
-52.69
-38.79
-26.17
-14.96
-5.59
1.17
4.53
3.98
-0.43
-8.02
-17.64
-27.88
-37.35
-44.94
-50.12
-52.92
-53.94
-54.03
-54.03
-54.47
-55.48
-56.86
-58.18
-59.02
-59.10
-58.41
-57.21
-55.90
-54.93
-54.60
-54.91
-55.58
-56.22
-56.47
-56.16
-55.35
-54.20
-52.90
-51.45
-49.83
-47.99
-46.07
-44.34
-43.02
-42.12
-41.32
-39.99
-37.45
-33.24
-27.31
-19.96
-11.65
-2.72
6.58
16.14
25.66
34.63
42.20
47.57
50.19
50.07
47.79
44.27
40.46
37.12
34.69
33.28
32.75
32.79
32.95
32.79
32.02
30.93
30.54
32.37
37.74
47.01
58.94
71.19
80.80
85.28
83.54
76.31
65.75
54.32
43.97
35.34
28.51
22.75
16.81
9.10
-1.81
-16.64
-35.04
-54.86
-72.76
-83.87
-84.35
-73.01
-52.07
-26.07
0.18
23.32
43.37
62.65
85.76
116.31
155.08
199.29
243.76
282.69
311.03
326.35
318.82
283.64
223.21
147.47
69.58
0.61
-51.01
-86.69
-109.57
-123.46
-130.99
-134.84
-137.03
-138.95
-140.78
-141.33
-139.23
-133.15
-123.40
-110.80
-97.32
-85.62
-78.69
-79.02
-87.77
-104.60
-126.89
-150.94
-172.23
-187.31
-194.79
-195.56
-191.88
-185.92
-178.83
-169.90
-157.62
-140.45
-118.02
-91.52
-63.20
-35.43
-9.75
13.24
33.77
52.10
68.25
81.88
92.64
100.28
104.64
105.51
102.54
95.65
85.45
73.48
61.92
52.86
47.38
45.25
45.41
46.88
49.68
54.85
63.70
76.80
93.19
110.63
126.49
138.86
147.07
151.42
152.43
150.13
143.93
133.14
117.56
97.90
75.54
52.03
28.51
5.60
-16.43
-37.16
-55.80
-71.22
-82.32
-88.34
-89.18
-85.43
-78.20
-68.80
-58.50
-48.24
-38.53
-29.46
-20.90
-12.76
-5.23
1.20
5.90
8.46
8.87
7.70
5.82
4.13
3.31
3.71
5.42
8.41
12.65
18.12
24.72
32.13
39.74
46.75
52.44
56.31
58.24
58.44
57.25
55.06
52.33
49.62
47.74
47.64
50.06
55.12
62.00
68.91
73.63
74.21
69.74
60.61
48.38
35.12
22.69
12.16
3.75
-2.95
-8.47
-13.12
-16.93
-19.70
-21.29
-21.72
-21.19
-19.98
-18.41
-16.91
-16.13
-17.00
-20.50
-27.37
-37.55
-49.83
-61.92
-70.96
-74.35
-70.74
-60.57
-46.01
-30.35
-16.96
-8.38
-5.76
-8.78
-15.95
-25.00
-33.54
-39.50
-41.73
-40.06
-35.11
-27.71
-18.43
-7.51
4.52
16.07
24.24
25.60
17.86
1.38
-20.28
-41.47
-56.80
-63.26
-61.11
-53.09
-42.53
-31.70
-21.20
-10.52
0.75
12.12
22.19
29.34
32.59
31.97
28.17
21.93
13.49
2.56
-11.21
-27.70
-45.91
-64.14
-80.39
-92.96
-100.94
-104.36
-104.10
-101.39
-97.37
-92.72
-87.61
-81.80
-74.97
-67.04
-58.27
-49.21
-40.43
-32.26
-24.62
-16.96
-8.50
1.42
12.98
25.73
38.64
50.63
61.15
70.52
79.87
90.40
102.61
115.72
127.82
136.58
140.13
137.62
129.07
115.02
96.08
72.99
46.91
19.74
-5.96
-27.61
-43.39
-52.88
-57.05
-57.62
-56.17
-53.55
-49.85
-44.89
-38.80
-32.33
-26.66
-22.81
-21.08
-20.95
-21.32
-21.22
-20.26
-18.91
-18.25
-19.50
-23.59
-30.82
-40.79
-52.58
-64.96
-76.66
-86.60
-94.07
-98.67
-100.07
-97.97
-91.85
-81.39
-66.74
-48.96
-29.97
-12.02
3.02
14.30
22.18
28.15
34.28
42.48
53.73
67.44
81.27
91.84
95.97
92.32
82.32
69.79
59.35
54.49
56.11
62.60
71.15
79.46
86.73
93.49
100.46
107.48
113.28
116.02
114.42
108.34
98.92
87.88
76.79
66.51
57.05
47.94
38.48
28.14
16.82
4.91
-6.81
-17.41
-25.97
-31.80
-34.58
-34.42
-31.89
-27.93
-23.64
-20.02
-17.62
-16.22
-14.97
-12.67
-8.35
-1.79
6.19
13.90
19.42
21.23
18.89
13.24
6.13
-0.18
-4.07
-5.30
-5.40
-7.33
-14.70
-30.74
-56.92
-91.78
-130.25
-164.00
-183.30
-180.07
-150.84
-98.69
-32.69
34.98
92.91
133.57
154.32
156.53
143.84
120.67
91.76
62.22
37.12
20.50
14.07
16.41
23.58
30.78
34.16
32.19
25.81
17.60
10.47
6.60
6.84
10.60
16.19
21.44
24.37
23.90
20.02
13.59
5.97
-1.58
-8.30
-13.98
-18.89
-23.44
-27.96
-32.61
-37.36
-42.11
-46.74
-51.15
-55.20
-58.72
-61.52
-63.40
-64.31
-64.43
-64.25
-64.42
-65.56
-67.92
-71.04
-73.72
-74.45
-71.97
-65.94
-57.15
-47.27
-38.19
-31.23
-26.70
-23.90
-21.52
-18.22
-13.03
-5.48
4.42
16.06
28.05
38.06
43.05
40.32
28.68
9.54
-13.19
-34.38
-49.79
-57.69
-59.40
-58.16
-57.22
-58.19
-60.50
-62.33
-62.00
-59.27
-55.30
-51.86
-50.06
-49.62
-48.95
-45.91
-38.82
-27.39
-12.96
1.66
13.11
18.45
16.24
7.14
-6.10
-19.42
-28.89
-32.07
-28.74
-20.90
-11.93
-5.29
-3.54
-7.65
-16.91
-29.26
-41.76
-51.17
-54.66
-50.50
-38.71
-21.22
-1.47
16.67
30.16
37.71
40.07
39.43
38.39
38.87
41.41
44.87
46.79
44.16
34.74
18.73
-0.06
-14.15
-14.55
5.75
48.12
106.57
169.10
221.82
253.99
261.45
247.09
218.31
183.24
147.73
114.45
83.59
54.21
25.16
-4.75
-36.44
-70.12
-104.62
-137.09
-163.38
-179.39
-182.69
-173.53
-154.83
-131.12
-106.91
-85.33
-67.37
-51.99
-36.90
-19.97
-0.34
20.83
40.73
56.10
64.72
66.35
62.77
56.68
50.45
45.30
41.44
38.67
37.04
36.94
38.55
41.32
43.78
44.06
40.80
33.76
23.91
12.97
2.68
-5.96
-12.86
-18.71
-24.48
-30.91
-38.14
-45.71
-52.71
-58.05
-60.90
-60.83
-57.89
-52.52
-45.32
-36.99
-28.20
-19.46
-11.14
-3.52
3.25
9.00
13.59
16.88
18.71
19.08
18.12
16.11
13.41
10.41
7.40
4.63
2.24
0.31
-1.10
-1.96
-2.36
-2.43
-2.35
-2.24
-2.11
-1.84
-1.25
-0.22
1.20
2.70
3.83
4.17
3.54
2.00
-0.12
-2.39
-4.43
-6.09
-7.40
-8.60
-9.99
-11.84
-14.27
-17.20
-20.38
-23.43
-25.89
-27.36
-27.51
-26.21
-23.51
-19.63
-14.94
-9.91
-5.05
-0.76
2.61
4.91
6.16
6.53
6.29
5.71
5.02
4.40
3.96
3.78
3.85
4.13
4.52
4.88
5.10
5.18
5.22
5.36
5.68
6.07
6.29
6.03
5.13
3.62
1.72
-0.28
-2.13
-3.72
-5.02
-6.10
-7.08
-8.12
-9.44
-11.21
-13.48
-16.09
-18.71
-20.95
-22.52
-23.39
-23.62
-23.24
-22.13
-20.05
-16.80
-12.45
-7.35
-2.06
2.83
6.90
9.92
11.89
12.89
13.10
12.75
12.08
11.36
10.73
10.24
9.85
9.47
9.10
8.74
8.44
8.17
7.95
7.80
7.77
7.88
8.05
8.14
7.97
7.45
6.61
5.55
4.38
3.14
1.79
0.27
-1.42
-3.23
-5.05
-6.86
-8.68
-10.64
-12.85
-15.36
-18.09
-20.84
-23.29
-25.02
-25.62
-24.77
-22.40
-18.66
-13.86
-8.38
-2.48
3.57
9.55
15.14
19.96
23.65
26.04
27.15
27.17
26.36
24.92
23.05
20.91
18.71
16.70
15.07
13.90
13.11
12.53
12.00
11.45
10.92
10.46
10.11
9.79
9.35
8.63
7.48
5.82
3.62
0.90
-2.24
-5.68
-9.28
-12.82
-16.11
-19.06
-21.64
-23.94
-26.12
-28.35
-30.70
-33.11
-35.36
-37.12
-38.00
-37.67
-35.92
-32.73
-28.33
-23.11
-17.59
-12.31
-7.73
-4.17
-1.72
-0.36
0.05
-0.34
-1.37
-2.88
-4.65
-6.40
-7.76
-8.39
-8.00
-6.43
-3.69
0.01
4.37
8.98
13.46
17.46
20.74
23.14
24.53
24.91
24.33
22.99
21.17
19.21
17.44
16.05
15.11
14.49
14.00
13.34
12.26
10.51
7.99
4.78
1.18
-2.35
-5.28
-7.07
-7.37
-5.95
-2.87
1.64
7.04
12.62
17.61
21.38
23.62
24.42
24.22
23.55
22.83
22.16
21.38
20.27
18.68
16.71
14.61
12.67
11.07
9.84
8.96
8.31
7.83
7.49
7.28
7.23
7.36
7.64
7.97
8.14
7.88
6.98
5.36
3.19
0.75
-1.61
-3.67
-5.42
-6.95
-8.45
-10.03
-11.72
-13.54
-15.48
-17.62
-20.01
-22.54
-24.85
-26.36
-26.39
-24.48
-20.62
-15.27
-9.22
-3.28
2.04
6.51
10.14
12.98
14.95
15.95
15.87
14.77
12.94
10.77
8.67
6.91
5.64
4.87
4.57
4.71
5.20
5.88
6.56
7.01
6.99
6.43
5.37
3.97
2.51
1.17
0.00
-1.12
-2.44
-4.13
-6.25
-8.65
-11.05
-13.22
-15.08
-16.77
-18.55
-20.60
-22.91
-25.24
-27.20
-28.45
-28.78
-28.15
-26.58
-24.12
-20.78
-16.59
-11.73
-6.47
-1.16
3.81
8.17
11.71
14.29
15.79
16.21
15.69
14.56
13.30
12.32
11.88
11.95
12.38
12.94
13.45
13.89
14.25
14.57
14.85
15.04
15.08
14.91
14.47
13.77
12.82
11.70
10.51
9.29
8.06
6.78
5.36
3.75
1.99
0.19
-1.60
-3.37
-5.16
-7.07
-9.18
-11.40
-13.53
-15.25
-16.21
-16.11
-14.80
-12.24
-8.56
-3.95
1.35
7.06
12.81
18.21
22.90
26.58
29.10
30.44
30.71
30.11
28.87
27.25
25.56
24.05
22.86
21.99
21.27
20.54
19.72
18.84
18.04
17.44
17.07
16.80
16.39
15.63
14.42
12.84
11.05
9.23
7.47
5.73
3.95
2.08
0.13
-1.87
-3.83
-5.71
-7.51
-9.28
-11.05
-12.81
-14.43
-15.83
-16.85
-17.39
-17.38
-16.75
-15.45
-13.43
-10.66
-7.17
-3.11
1.27
5.66
9.82
13.59
16.87
19.61
21.67
22.95
23.35
22.91
21.88
20.61
19.45
18.64
18.20
18.00
17.85
17.66
17.38
17.00
16.51
15.82
14.83
13.52
11.97
10.30
8.67
7.17
5.77
4.38
2.85
1.09
-0.95
-3.25
-5.70
-8.13
-10.36
-12.26
-13.80
-15.07
-16.24
-17.48
-18.84
-20.24
-21.44
-22.17
-22.21
-21.38
-19.63
-16.98
-13.54
-9.56
-5.37
-1.34
2.21
5.14
7.48
9.33
10.83
12.03
12.87
13.28
13.17
12.55
11.50
10.14
8.62
7.13
5.85
4.88
4.25
3.86
3.56
3.18
2.67
2.03
1.29
0.46
-0.41
-1.22
-1.86
-2.27
-2.53
-2.88
-3.57
-4.74
-6.31
-7.99
-9.42
-10.38
-10.88
-11.13
-11.42
-11.94
-12.78
-13.90
-15.25
-16.74
-18.23
-19.48
-20.17
-19.99
-18.69
-16.24
-12.77
-8.59
-4.04
0.50
4.74
8.46
11.46
13.66
15.03
15.61
15.52
14.91
13.92
12.63
11.07
9.24
7.20
5.10
3.19
1.78
1.10
1.19
1.94
3.07
4.33
5.52
6.60
7.58
8.49
9.26
9.77
9.91
9.59
8.82
7.62
6.14
4.53
3.03
1.83
1.12
0.90
1.01
1.16
1.08
0.52
-0.63
-2.31
-4.35
-6.44
-8.23
-9.32
-9.39
-8.25
-5.97
-2.85
0.63
3.93
6.59
8.30
8.97
8.70
7.77
6.56
5.41
4.54
4.00
3.67
3.41
3.16
3.03
3.23
3.95
5.23
6.88
8.61
10.10
11.23
12.02
12.58
13.03
13.34
13.40
13.05
12.22
10.94
9.41
7.86
6.51
5.44
4.49
3.42
1.92
-0.19
-2.87
-5.88
-8.91
-11.74
-14.31
-16.70
-19.04
-21.34
-23.46
-25.13
-26.10
-26.27
-25.69
-24.52
-22.90
-20.91
-18.51
-15.71
-12.63
-9.56
-6.86
-4.90
-3.83
-3.55
-3.74
-3.99
-4.01
-3.70
-3.19
-2.76
-2.62
-2.84
-3.25
-3.52
-3.32
-2.45
-0.92
1.05
3.12
4.96
6.32
7.10
7.31
7.07
6.52
5.80
5.01
4.20
3.36
2.47
1.55
0.63
-0.23
-0.99
-1.65
-2.29
-3.04
-3.99
-5.16
-6.50
-7.88
-9.19
-10.38
-11.43
-12.28
-12.78
-12.69
-11.77
-9.90
-7.26
-4.18
-1.14
1.50
3.59
5.17
6.39
7.34
7.98
8.17
7.77
6.74
5.23
3.52
1.93
0.72
0.00
-0.24
-0.16
0.13
0.48
0.83
1.12
1.25
1.16
0.81
0.24
-0.45
-1.11
-1.68
-2.13
-2.54
-3.01
-3.64
-4.51
-5.64
-6.95
-8.32
-9.53
-10.41
-10.83
-10.88
-10.80
-10.91
-11.45
-12.40
-13.54
-14.51
-15.00
-14.87
-14.15
-12.95
-11.36
-9.36
-6.88
-3.86
-0.40
3.27
6.81
9.89
12.32
14.03
15.06
15.45
15.25
14.50
13.32
11.88
10.45
9.28
8.57
8.30
8.34
8.47
8.49
8.33
8.06
7.78
7.64
7.66
7.79
7.89
7.81
7.46
6.79
5.80
4.54
3.02
1.32
-0.49
-2.26
-3.82
-5.06
-5.97
-6.61
-7.15
-7.77
-8.63
-9.78
-11.20
-12.80
-14.36
-15.58
-16.15
-15.79
-14.37
-11.97
-8.90
-5.54
-2.25
0.78
3.46
5.76
7.66
9.04
9.81
9.94
9.50
8.68
7.69
6.71
5.86
5.20
4.73
4.46
4.38
4.55
4.96
5.60
6.33
6.99
7.38
7.34
6.83
5.91
4.71
3.39
2.07
0.88
-0.10
-0.79
-1.22
-1.52
-1.91
-2.63
-3.84
-5.49
-7.34
-9.09
-10.45
-11.34
-11.84
-12.15
-12.47
-12.85
-13.21
-13.29
-12.82
-11.64
-9.77
-7.38
-4.73
-1.94
0.95
3.99
7.17
10.31
13.08
15.14
16.24
16.42
15.93
15.11
14.29
13.55
12.85
12.07
11.18
10.29
9.59
9.27
9.38
9.83
10.41
10.92
11.21
11.23
10.93
10.28
9.26
7.86
6.17
4.35
2.60
1.03
-0.39
-1.80
-3.34
-5.15
-7.21
-9.38
-11.51
-13.49
-15.32
-17.08
-18.87
-20.75
-22.70
-24.58
-26.12
-27.05
-27.12
-26.21
-24.36
-21.75
-18.69
-15.51
-12.60
-10.26
-8.71
-7.94
-7.70
-7.63
-7.43
-7.07
-6.86
-7.36
-9.03
-11.89
-15.40
-18.70
-20.98
-21.95
-21.85
-21.18
-20.27
-19.07
-17.20
-14.29
-10.20
-5.06
0.92
7.54
14.58
21.75
28.69
34.96
40.31
44.66
48.02
50.21
50.39
47.13
38.95
25.31
7.04
-13.61
-33.69
-50.28
-61.14
-65.45
-64.09
-59.63
-55.86
-57.06
-65.55
-81.12
-99.35
-111.73
-109.81
-89.96
-55.40
-14.34
24.02
53.47
73.46
87.17
98.60
110.39
123.36
137.10
150.85
163.97
175.98
186.34
191.43
188.69
176.49
154.61
124.46
88.89
51.48
15.77
-15.50
-40.96
-60.15
-73.77
-83.05
-89.13
-92.53
-92.98
-89.73
-82.16
-70.40
-55.34
-38.94
-23.64
-11.46
-3.15
2.11
6.39
12.00
20.38
31.63
44.29
55.94
64.36
68.32
67.94
64.26
58.64
52.24
45.92
40.19
35.41
31.80
29.36
27.78
26.44
24.64
21.95
18.34
14.08
9.40
4.52
-0.34
-4.79
-8.34
-10.54
-11.27
-10.98
-10.48
-10.82
-12.44
-14.94
-17.39
-18.96
-19.64
-20.19
-21.97
-26.12
-33.62
-44.51
-58.01
-72.88
-88.01
-102.68
-116.39
-129.15
-140.94
-152.64
-164.87
-177.81
-191.04
-203.88
-215.70
-225.84
-234.26
-240.85
-246.68
-252.39
-258.01
-262.59
-264.63
-262.60
-255.05
-241.99
-215.57
-172.59
-114.83
-49.00
16.48
75.01
121.27
157.30
185.09
205.62
218.07
222.36
218.29
207.49
192.48
175.72
159.34
144.12
130.50
117.79
105.41
93.12
81.27
70.44
61.10
53.81
48.43
44.94
42.92
42.29
43.24
46.19
51.27
58.08
65.92
73.64
80.32
85.14
87.63
87.61
85.25
81.04
75.74
70.37
65.79
62.49
60.28
58.30
55.20
49.46
39.84
25.81
7.97
-11.80
-30.61
-45.21
-53.07
-53.26
-46.81
-36.21
-24.48
-14.02
-5.96
-0.25
3.76
6.68
8.77
10.05
10.57
10.72
11.02
12.01
13.84
16.26
18.70
20.59
21.58
21.71
21.39
21.21
21.77
23.39
26.16
29.89
34.26
38.91
43.59
48.17
52.61
57.00
61.48
66.14
71.00
75.91
80.61
84.79
88.15
90.43
91.39
90.76
88.24
83.59
76.72
67.83
57.32
45.72
33.54
21.24
9.22
-2.10
-12.38
-21.42
-29.33
-36.49
-43.44
-50.56
-57.72
-64.34
-69.44
-72.08
-71.74
-68.51
-63.09
-56.51
-49.92
-44.29
-40.39
-38.61
-39.07
-41.53
-45.47
-50.22
-55.16
-59.87
-64.23
-68.35
-72.33
-76.15
-79.60
-82.42
-84.61
-86.58
-89.08
-92.76
-97.89
-103.94
-109.77
-113.98
-115.31
-113.36
-108.69
-102.75
-97.30
-93.93
-93.41
-95.51
-98.66
-100.22
-97.25
-87.28
-69.44
-44.89
-17.44
7.59
24.72
30.72
26.10
14.84
3.04
-3.77
-2.33
6.82
20.53
34.42
45.34
52.30
55.75
56.75
55.67
52.34
45.66
38.56
33.55
32.51
35.76
41.65
48.01
49.87
46.76
39.45
29.34
17.34
4.03
-8.24
-18.62
-26.78
-32.67
-35.84
-36.26
-33.96
-29.53
-23.60
-16.81
-10.07
-3.96
1.15
5.49
9.08
11.98
14.03
15.15
15.43
14.88
13.79
12.48
11.46
10.87
10.66
10.65
10.71
10.85
10.99
11.11
11.19
11.28
11.30
11.17
10.78
10.07
9.03
7.63
5.91
3.93
1.79
-0.49
-2.89
-5.38
-7.88
-10.36
-12.86
-15.45
-18.19
-21.09
-24.11
-27.14
-30.02
-32.56
-34.43
-35.17
-34.33
-31.59
-26.90
-20.57
-13.15
-5.28
2.50
9.76
16.21
21.64
25.86
28.80
30.48
31.03
30.64
29.58
28.13
26.58
25.20
24.14
23.47
23.12
22.96
22.85
22.66
22.35
21.87
21.21
20.34
19.25
17.91
16.29
14.37
12.11
9.50
6.56
3.35
-0.06
-3.55
-7.01
-10.36
-13.56
-16.72
-20.03
-23.72
-27.91
-32.54
-37.36
-41.92
-45.76
-48.39
-49.38
-48.42
-45.30
-40.08
-33.05
-24.76
-15.87
-7.02
1.26
8.60
14.74
19.49
22.72
24.39
24.69
24.00
22.82
21.64
20.76
20.29
20.21
20.42
20.88
21.57
22.45
23.36
24.07
24.34
24.07
23.32
22.32
21.30
20.36
19.40
18.15
16.39
14.00
11.10
7.95
4.83
1.97
-0.56
-2.78
-4.81
-6.77
-8.81
-11.10
-13.81
-17.03
-20.65
-24.33
-27.52
-29.55
-29.85
-28.07
-24.20
-18.54
-11.61
-4.03
3.59
10.78
17.20
22.66
27.10
30.49
32.80
33.95
33.94
32.88
31.14
29.26
27.84
27.27
27.56
28.29
28.84
28.65
27.54
25.82
24.13
23.13
23.10
23.78
24.37
23.81
21.32
16.69
10.56
4.13
-1.31
-5.03
-7.18
-8.88
-11.66
-16.59
-23.81
-32.32
-40.40
-46.19
-48.10
-44.92
-35.97
-21.37
-2.42
18.13
36.64
49.84
56.40
57.90
58.32
62.37
73.18
90.94
112.89
134.83
152.94
165.23
171.70
173.58
172.17
167.90
160.14
147.54
129.03
104.58
75.52
44.42
14.20
-12.80
-35.40
-53.64
-68.13
-79.37
-87.37
-91.89
-92.97
-91.35
-88.52
-86.18
-85.59
-87.07
-90.04
-93.38
-96.05
-97.45
-97.59
-96.81
-95.44
-93.50
-90.84
-87.30
-83.06
-78.75
-75.26
-73.27
-72.75
-72.73
-71.71
-68.29
-61.79
-52.60
-41.92
-31.18
-21.46
-13.34
-6.83
-1.29
4.81
13.78
27.97
48.39
73.50
98.99
119.06
128.87
126.79
115.18
99.26
84.61
74.92
71.04
71.66
74.77
79.06
84.13
89.94
96.19
101.83
105.21
104.46
97.96
84.89
65.66
41.96
16.36
-8.46
-30.70
-49.98
-67.15
-83.46
-99.43
-114.18
-125.80
-132.34
-132.93
-128.48
-121.31
-114.10
-108.73
-105.53
-103.32
-100.24
-94.70
-86.19
-75.47
-64.10
-53.63
-44.92
-37.78
-31.23
-24.30
-16.57
-8.68
-1.98
2.25
3.53
2.44
0.13
-2.13
-3.16
-1.58
4.31
16.27
35.16
59.68
86.13
109.45
125.51
133.17
134.99
135.92
140.70
151.47
166.84
182.90
195.18
200.42
197.14
185.30
165.50
138.55
105.54
68.04
28.47
-10.32
-45.63
-75.63
-99.72
-118.40
-132.80
-144.05
-152.72
-158.56
-160.68
-158.15
-150.58
-138.46
-123.16
-106.50
-90.31
-76.05
-64.51
-55.96
-50.20
-46.64
-44.52
-43.03
-41.43
-39.22
-36.26
-32.64
-28.62
-24.43
-20.21
-15.97
-11.80
-7.80
-4.21
-1.34
0.54
1.27
0.89
-0.36
-2.06
-3.78
-5.13
-5.95
-6.30
-6.33
-6.28
-6.31
-6.52
-6.97
-7.73
-8.91
-10.57
-12.72
-15.27
-18.03
-20.88
-23.70
-26.40
-28.85
-30.79
-31.83
-31.47
-29.31
-25.14
-19.04
-11.44
-3.03
5.37
12.99
19.28
24.04
27.31
29.34
30.41
30.69
30.28
29.22
27.60
25.64
23.64
21.90
20.67
20.06
20.05
20.49
21.09
21.53
21.51
20.89
19.75
18.33
16.96
15.80
14.78
13.58
11.87
9.50
6.66
3.79
1.32
-0.50
-1.77
-2.79
-3.89
-5.26
-6.88
-8.67
-10.60
-12.67
-14.93
-17.25
-19.33
-20.74
-21.05
-19.95
-17.42
-13.58
-8.72
-3.17
2.63
8.26
13.26
17.28
20.13
21.87
22.67
22.69
22.00
20.58
18.47
15.90
13.29
11.21
10.10
10.13
11.06
12.39
13.52
14.04
13.78
12.84
11.48
9.94
8.43
7.02
5.65
4.23
2.65
0.85
-1.19
-3.44
-5.84
-8.28
-10.65
-12.86
-14.83
-16.57
-18.10
-19.49
-20.82
-22.16
-23.51
-24.82
-25.92
-26.54
-26.36
-25.03
-22.38
-18.41
-13.37
-7.65
-1.66
4.19
9.59
14.22
17.81
20.15
21.19
21.09
20.21
18.98
17.78
16.81
16.03
15.33
14.56
13.71
12.91
12.31
12.01
11.99
12.10
12.19
12.17
11.96
11.57
10.89
9.79
8.10
5.76
2.93
-0.10
-3.00
-5.54
-7.72
-9.66
-11.53
-13.43
-15.36
-17.24
-19.06
-20.79
-22.45
-23.97
-25.14
-25.67
-25.24
-23.66
-20.87
-16.97
-12.16
-6.72
-0.95
4.80
10.17
14.85
18.61
21.36
23.12
23.96
23.99
23.32
22.06
20.35
18.34
16.22
14.21
12.51
11.32
10.77
10.85
11.38
12.03
12.42
12.21
11.22
9.44
7.05
4.35
1.65
-0.72
-2.54
-3.73
-4.42
-4.88
-5.48
-6.52
-8.11
-10.18
-12.46
-14.73
-16.85
-18.82
-20.69
-22.46
-23.97
-24.98
-25.23
-24.54
-22.82
-19.99
-16.00
-10.88
-4.84
1.61
7.79
13.02
16.86
19.25
20.44
20.78
20.52
19.73
18.43
16.71
14.82
13.10
11.85
11.19
11.06
11.29
11.74
12.36
13.14
14.05
14.95
15.59
15.68
14.96
13.39
11.14
8.57
6.08
3.93
2.23
0.87
-0.35
-1.57
-2.86
-4.22
-5.60
-6.98
-8.35
-9.72
-11.12
-12.57
-14.04
-15.46
-16.64
-17.28
-17.00
-15.45
-12.48
-8.22
-3.08
2.39
7.64
12.25
16.04
18.99
21.20
22.76
23.67
23.89
23.38
22.19
20.45
18.39
16.21
14.06
12.11
10.55
9.59
9.41
10.00
11.14
12.41
13.30
13.44
12.73
11.31
9.49
7.65
6.08
4.94
4.22
3.71
3.10
2.04
0.37
-1.85
-4.40
-6.98
-9.40
-11.66
-13.85
-16.02
-18.07
-19.78
-20.97
-21.54
-21.55
-21.08
-20.08
-18.33
-15.48
-11.34
-6.00
0.03
5.99
11.09
14.77
16.83
17.45
17.02
16.00
14.79
13.64
12.65
11.82
11.05
10.31
9.52
8.76
8.13
7.83
8.00
8.65
9.56
10.26
10.25
9.13
6.86
3.72
0.28
-2.88
-5.35
-7.01
-7.98
-8.54
-8.96
-9.47
-10.27
-11.47
-13.05
-14.85
-16.58
-17.95
-18.82
-19.26
-19.50
-19.80
-20.28
-20.84
-21.16
-20.82
-19.47
-16.91
-13.12
-8.26
-2.72
3.00
8.31
12.68
15.65
17.02
16.79
15.19
12.61
9.56
6.56
4.07
2.36
1.48
1.27
1.50
1.96
2.53
3.19
3.92
4.68
5.38
5.94
6.31
6.46
6.33
5.77
4.63
2.82
0.44
-2.18
-4.55
-6.30
-7.25
-7.57
-7.60
-7.73
-8.21
-9.14
-10.49
-12.19
-14.20
-16.46
-18.88
-21.29
-23.44
-24.97
-25.50
-24.73
-22.53
-19.07
-14.74
-10.11
-5.66
-1.74
1.54
4.20
6.26
7.69
8.46
8.62
8.37
8.03
7.78
7.63
7.35
6.64
5.37
3.73
2.16
1.22
1.22
2.09
3.42
4.66
5.37
5.41
4.93
4.20
3.46
2.85
2.34
1.84
1.21
0.33
-0.83
-2.22
-3.66
-4.93
-5.86
-6.43
-6.76
-7.09
-7.60
-8.36
-9.25
-10.04
-10.51
-10.45
-9.69
-8.12
-5.67
-2.32
1.73
6.11
10.31
13.82
16.33
17.78
18.35
18.32
17.95
17.36
16.52
15.37
13.91
12.23
10.49
8.88
7.49
6.33
5.39
4.64
4.10
3.83
3.78
3.86
3.85
3.54
2.81
1.71
0.50
-0.49
-0.99
-0.98
-0.69
-0.53
-0.92
-2.14
-4.16
-6.72
-9.37
-11.69
-13.41
-14.45
-14.97
-15.25
-15.60
-16.26
-17.25
-18.41
-19.38
-19.74
-19.19
-17.63
-15.23
-12.36
-9.43
-6.76
-4.46
-2.45
-0.54
1.36
3.19
4.74
5.72
5.99
5.56
4.67
3.63
2.73
2.12
1.83
1.79
1.97
2.34
2.86
3.49
4.12
4.64
4.97
5.16
5.34
5.69
6.32
7.20
8.16
8.97
9.44
9.49
9.20
8.71
8.19
7.74
7.40
7.13
6.84
6.46
5.90
5.04
3.82
2.20
0.30
-1.61
-3.17
-4.02
-3.87
-2.65
-0.45
2.43
5.65
8.94
12.14
15.18
18.00
20.48
22.39
23.46
23.51
22.51
20.69
18.45
16.19
14.23
12.71
11.57
10.66
9.80
8.82
7.59
6.10
4.48
2.94
1.70
0.87
0.36
-0.03
-0.57
-1.38
-2.46
-3.75
-5.20
-6.87
-8.85
-11.17
-13.67
-16.03
-17.89
-19.00
-19.32
-18.97
-18.24
-17.44
-16.85
-16.73
-17.22
-18.29
-19.72
-21.05
-21.78
-21.50
-20.04
-17.59
-14.47
-11.08
-7.68
-4.37
-1.13
2.01
4.92
7.38
9.15
10.15
10.46
10.30
9.90
9.38
8.77
8.01
7.13
6.25
5.51
5.00
4.66
4.31
3.78
2.98
2.02
1.17
0.64
0.54
0.76
1.09
1.30
1.25
0.87
0.14
-0.94
-2.36
-4.06
-5.88
-7.64
-9.15
-10.36
-11.37
-12.32
-13.44
-14.84
-16.55
-18.50
-20.46
-22.11
-23.07
-23.03
-21.81
-19.50
-16.40
-12.92
-9.46
-6.28
-3.49
-1.10
0.93
2.61
3.95
4.95
5.69
6.26
6.72
7.12
7.48
7.84
8.26
8.82
9.57
10.53
11.65
12.86
14.05
15.08
15.80
16.05
15.74
14.89
13.67
12.31
11.04
9.94
8.92
7.78
6.30
4.39
2.11
-0.37
-2.90
-5.46
-8.13
-11.10
-14.46
-18.17
-22.04
-25.81
-29.21
-31.98
-33.92
-34.78
-34.32
-32.36
-28.90
-24.20
-18.80
-13.29
-8.24
-3.92
-0.38
2.49
4.89
6.92
8.62
9.97
10.90
11.38
11.43
11.15
10.73
10.43
10.47
10.94
11.76
12.71
13.50
13.96
14.03
13.85
13.57
13.26
12.89
12.36
11.60
10.64
9.57
8.52
7.56
6.72
5.95
5.18
4.36
3.35
1.98
0.10
-2.36
-5.32
-8.59
-11.95
-15.29
-18.52
-21.63
-24.41
-26.51
-27.44
-26.81
-24.53
-20.83
-16.24
-11.33
-6.57
-2.18
1.75
5.26
8.33
10.91
12.86
14.03
14.32
13.74
12.45
10.72
8.87
7.23
6.03
5.39
5.30
5.68
6.34
7.00
7.35
7.09
6.12
4.50
2.46
0.33
-1.63
-3.31
-4.71
-5.88
-6.86
-7.63
-8.21
-8.64
-9.00
-9.38
-9.83
-10.36
-10.93
-11.53
-12.20
-13.01
-14.07
-15.39
-16.87
-18.25
-19.13
-19.09
-17.83
-15.23
-11.43
-6.76
-1.68
3.39
8.06
12.07
15.21
17.32
18.29
18.15
17.05
15.34
13.37
11.46
9.72
8.11
6.53
4.97
3.56
2.58
2.28
2.72
3.72
4.91
5.88
6.31
6.12
5.49
4.70
4.06
3.70
3.53
3.32
2.74
1.62
0.01
-1.87
-3.73
-5.38
-6.91
-8.47
-10.20
-12.10
-14.01
-15.73
-17.21
-18.49
-19.61
-20.46
-20.73
-20.02
-18.03
-14.79
-10.67
-6.17
-1.77
2.27
5.87
9.03
11.70
13.72
14.90
15.22
14.79
13.90
12.89
12.04
11.49
11.24
11.16
11.12
10.99
10.76
10.53
10.45
10.64
11.12
11.78
12.36
12.66
12.58
12.13
11.45
10.66
9.82
8.90
7.80
6.37
4.51
2.17
-0.60
-3.69
-6.85
-9.85
-12.53
-14.85
-16.94
-18.99
-21.20
-23.60
-26.00
-28.05
-29.29
-29.30
-27.84
-24.88
-20.67
-15.68
-10.47
-5.53
-1.19
2.44
5.40
7.79
9.62
10.80
11.28
11.04
10.21
9.02
7.64
6.19
4.65
2.96
1.12
-0.73
-2.38
-3.65
-4.40
-4.68
-4.67
-4.57
-4.60
-4.88
-5.43
-6.19
-7.02
-7.78
-8.37
-8.75
-8.91
-8.89
-8.72
-8.43
-8.05
-7.62
-7.28
-7.16
-7.43
-8.23
-9.59
-11.41
-13.42
-15.23
-16.42
-16.64
-15.74
-13.75
-10.84
-7.26
-3.19
1.20
5.71
10.09
14.04
17.27
19.63
21.07
21.67
21.49
20.63
19.20
17.43
15.66
14.25
13.46
13.31
13.60
13.98
14.18
14.08
13.74
13.32
12.92
12.58
12.26
11.91
11.51
11.00
10.31
9.33
7.96
6.16
4.05
1.88
-0.05
-1.53
-2.49
-3.06
-3.49
-4.12
-5.20
-6.88
-9.10
-11.63
-14.02
-15.77
-16.39
-15.61
-13.36
-9.90
-5.62
-1.02
3.43
7.38
10.56
12.86
14.27
14.91
14.93
14.49
13.69
12.58
11.17
9.53
7.79
6.14
4.70
3.50
2.43
1.37
0.25
-0.86
-1.81
-2.48
-2.86
-3.15
-3.61
-4.44
-5.66
-7.01
-8.15
-8.76
-8.77
-8.35
-7.83
-7.49
-7.44
-7.57
-7.69
-7.67
-7.60
-7.78
-8.54
-10.12
-12.42
-15.07
-17.45
-18.96
-19.12
-17.76
-14.96
-11.02
-6.38
-1.47
3.26
7.39
10.64
12.81
13.89
14.04
13.56
12.81
12.11
11.62
11.36
11.19
10.88
10.28
9.30
8.04
6.64
5.28
4.05
2.96
1.93
0.84
-0.40
-1.82
-3.41
-5.14
-6.95
-8.82
-10.71
-12.59
-14.43
-16.18
-17.83
-19.37
-20.82
-22.19
-23.48
-24.65
-25.65
-26.42
-26.93
-27.22
-27.31
-27.10
-26.40
-24.92
-22.40
-18.75
-14.18
-9.06
-3.90
0.86
4.97
8.33
10.96
12.92
14.21
14.84
14.82
14.24
13.25
12.05
10.81
9.68
8.73
8.02
7.61
7.60
8.05
8.95
10.13
11.27
12.03
12.14
11.51
10.25
8.58
6.71
4.82
3.06
1.49
0.17
-0.90
-1.80
-2.65
-3.62
-4.84
-6.38
-8.20
-10.23
-12.33
-14.37
-16.20
-17.69
-18.77
-19.43
-19.65
-19.36
-18.42
-16.67
-14.00
-10.52
-6.56
-2.60
0.85
3.50
5.26
6.23
6.60
6.45
5.82
4.70
3.19
1.50
-0.11
-1.50
-2.67
-3.71
-4.68
-5.44
-5.69
-5.14
-3.72
-1.74
0.25
1.72
2.38
2.34
1.93
1.43
0.93
0.27
-0.72
-2.08
-3.60
-4.96
-5.90
-6.41
-6.72
-7.15
-7.99
-9.28
-10.90
-12.63
-14.21
-15.45
-16.18
-16.21
-15.38
-13.55
-10.68
-6.85
-2.29
2.70
7.79
12.66
17.03
20.66
23.34
24.88
25.19
24.27
22.33
19.78
17.21
15.22
14.27
14.33
14.97
15.44
15.12
13.85
12.12
10.92
11.22
13.46
17.16
21.11
23.85
24.45
23.01
20.78
19.53
20.66
24.48
29.87
34.63
36.61
34.67
29.36
22.54
16.81
14.73
18.38
28.89
45.88
66.81
86.77
99.27
98.29
80.91
49.27
10.57
-25.34
-49.57
-57.50
-50.06
-32.51
-11.66
6.94
20.48
28.66
32.39
32.61
29.70
23.58
14.61
3.96
-6.43
-14.58
-19.31
-20.75
-20.21
-19.51
-20.19
-22.87
-27.23
-32.39
-37.43
-41.81
-45.41
-48.40
-51.14
-53.93
-56.92
-60.06
-63.09
-65.52
-66.87
-66.77
-65.18
-62.50
-59.41
-56.68
-54.87
-54.24
-54.65
-55.66
-56.61
-56.79
-55.56
-52.53
-47.69
-41.38
-34.22
-26.80
-19.45
-12.12
-4.40
4.12
13.49
23.12
31.92
38.57
42.10
42.36
40.25
37.53
36.43
38.99
46.63
59.64
76.83
95.62
112.24
122.80
124.57
117.25
103.38
87.57
74.77
68.22
68.33
72.77
77.77
79.96
77.58
70.71
60.60
48.69
35.78
22.14
7.81
-7.05
-21.78
-35.43
-47.23
-56.86
-64.71
-71.67
-78.56
-85.63
-92.28
-97.14
-98.77
-96.29
-89.85
-80.66
-70.48
-60.93
-53.01
-46.87
-41.99
-37.70
-33.54
-29.47
-25.83
-23.06
-21.36
-20.56
-20.19
-19.60
-18.38
-16.50
-14.23
-12.02
-10.26
-9.09
-8.42
-8.10
-7.95
-7.90
-7.89
-7.82
-7.60
-7.17
-6.64
-6.26
-6.31
-6.93
-8.05
-9.38
-10.61
-11.50
-12.01
-12.23
-12.36
-12.57
-13.01
-13.78
-14.96
-16.53
-18.32
-19.99
-21.05
-21.08
-19.76
-17.02
-13.02
-8.07
-2.53
3.17
8.59
13.24
16.75
18.92
19.88
20.03
19.91
19.91
20.14
20.43
20.51
20.20
19.55
18.79
18.19
17.92
18.01
18.33
18.74
19.12
19.37
19.49
19.42
19.13
18.60
17.83
16.81
15.58
14.14
12.49
10.62
8.61
6.54
4.59
2.87
1.43
0.13
-1.25
-2.94
-5.09
-7.62
-10.27
-12.68
-14.49
-15.42
-15.30
-14.04
-11.62
-8.09
-3.66
1.32
6.38
11.09
15.15
18.40
20.77
22.25
22.82
22.48
21.38
19.78
18.07
16.63
15.74
15.49
15.76
16.31
16.82
17.07
16.94
16.42
15.59
14.58
13.45
12.23
10.94
9.62
8.35
7.21
6.21
5.29
4.29
3.14
1.87
0.62
-0.44
-1.26
-1.91
-2.61
-3.61
-5.07
-6.98
-9.14
-11.27
-12.97
-13.86
-13.67
-12.23
-9.62
-6.18
-2.44
1.04
3.85
5.89
7.31
8.43
9.55
10.80
12.12
13.29
14.08
14.30
13.89
12.91
11.56
10.15
9.01
8.39
8.35
8.74
9.24
9.56
9.58
9.38
9.20
9.22
9.47
9.76
9.85
9.50
8.68
7.50
6.10
4.57
2.91
1.11
-0.78
-2.62
-4.21
-5.43
-6.28
-6.93
-7.63
-8.57
-9.79
-11.16
-12.38
-13.05
-12.85
-11.53
-9.09
-5.74
-1.92
1.92
5.45
8.57
11.36
13.94
16.35
18.36
19.68
20.07
19.48
18.13
16.39
14.61
13.01
11.69
10.68
9.98
9.57
9.38
9.24
8.97
8.44
7.69
6.87
6.17
5.70
5.46
5.30
5.05
4.51
3.59
2.29
0.71
-1.03
-2.80
-4.48
-6.02
-7.41
-8.70
-9.92
-11.13
-12.39
-13.73
-15.17
-16.57
-17.70
-18.25
-18.00
-16.85
-14.90
-12.33
-9.36
-6.14
-2.80
0.51
3.55
6.09
7.96
9.15
9.80
10.16
10.40
10.65
10.88
11.08
11.18
11.14
10.88
10.32
9.41
8.18
6.84
5.65
4.91
4.75
5.09
5.65
6.08
6.03
5.33
4.00
2.23
0.38
-1.21
-2.31
-2.85
-2.97
-2.92
-2.99
-3.32
-3.95
-4.82
-5.83
-6.85
-7.72
-8.29
-8.42
-8.04
-7.28
-6.33
-5.39
-4.53
-3.64
-2.48
-0.89
1.14
3.46
5.82
8.05
10.08
11.89
13.40
14.45
14.86
14.58
13.75
12.71
11.84
11.46
11.65
12.31
13.16
13.87
14.15
13.89
13.13
12.08
11.04
10.22
9.71
9.37
8.97
8.30
7.22
5.71
3.76
1.35
-1.53
-4.80
-8.21
-11.40
-14.06
-16.07
-17.54
-18.76
-20.00
-21.32
-22.57
-23.49
-23.89
-23.71
-22.96
-21.62
-19.62
-16.86
-13.36
-9.32
-5.12
-1.23
2.04
4.52
6.33
7.67
8.79
9.90
11.04
12.15
12.98
13.29
12.93
11.95
10.63
9.38
8.60
8.45
8.79
9.29
9.53
9.28
8.49
7.35
6.11
4.96
3.94
3.00
1.99
0.81
-0.55
-2.00
-3.38
-4.55
-5.47
-6.27
-7.20
-8.54
-10.47
-12.98
-15.82
-18.60
-20.93
-22.56
-23.36
-23.31
-22.43
-20.77
-18.53
-16.00
-13.52
-11.38
-9.63
-8.12
-6.57
-4.78
-2.75
-0.63
1.36
3.05
4.41
5.45
6.14
6.47
6.44
6.16
5.91
5.91
6.28
6.90
7.45
7.64
7.35
6.69
5.96
5.44
5.27
5.41
5.69
5.92
5.89
5.48
4.65
3.43
1.98
0.50
-0.73
-1.59
-2.06
-2.35
-2.79
-3.63
-5.02
-6.84
-8.82
-10.58
-11.78
-12.16
-11.69
-10.49
-8.81
-6.95
-5.08
-3.30
-1.52
0.32
2.21
4.00
5.52
6.67
7.49
8.15
8.79
9.40
9.79
9.74
9.14
8.14
7.06
6.24
5.92
6.12
6.63
7.20
7.58
7.63
7.29
6.54
5.42
3.98
2.30
0.51
-1.28
-2.96
-4.54
-6.12
-7.82
-9.72
-11.81
-13.98
-16.06
-17.95
-19.67
-21.26
-22.74
-24.06
-25.10
-25.82
-26.32
-26.80
-27.43
-28.21
-28.81
-28.80
-27.74
-25.49
-22.28
-18.62
-15.11
-12.22
-10.15
-8.83
-8.00
-7.31
-6.46
-5.29
-3.77
-1.98
-0.06
1.88
3.85
5.94
8.27
10.95
13.93
17.05
19.98
22.37
23.96
24.68
24.73
24.52
24.55
25.16
26.43
28.10
29.72
30.86
31.34
31.38
31.46
32.25
34.24
37.54
41.66
45.79
48.80
49.72
48.05
44.08
39.16
35.55
35.91
42.48
56.24
76.32
100.01
123.43
142.63
154.76
158.78
155.53
147.11
136.04
124.28
112.83
101.64
90.09
77.57
63.83
49.01
33.44
17.25
0.31
-17.54
-36.04
-54.50
-71.49
-85.41
-95.06
-100.05
-101.09
-99.74
-97.71
-96.21
-95.54
-95.18
-94.22
-91.95
-88.24
-83.63
-79.11
-75.58
-73.45
-72.58
-72.35
-72.05
-71.20
-69.67
-67.73
-65.78
-64.18
-63.01
-62.04
-60.80
-58.84
-55.88
-51.93
-47.24
-42.09
-36.67
-30.94
-24.71
-17.81
-10.33
-2.78
4.05
9.30
12.43
13.40
12.71
11.15
9.46
8.16
7.40
7.11
7.07
7.11
7.00
6.55
5.55
3.86
1.51
-1.27
-4.03
-6.28
-7.61
-7.86
-7.06
-5.45
-3.32
-0.99
1.25
3.13
4.44
5.06
5.00
4.40
3.50
2.52
1.59
0.71
-0.18
-1.23
-2.55
-4.19
-6.15
-8.34
-10.60
-12.64
-14.07
-14.50
-13.67
-11.57
-8.44
-4.72
-0.88
2.74
5.90
8.53
10.52
11.77
12.19
11.85
10.95
9.85
8.85
8.05
7.32
6.40
5.15
3.80
2.85
2.90
4.23
6.65
9.50
11.99
13.53
13.96
13.45
12.29
10.69
8.65
6.17
3.34
0.42
-2.23
-4.32
-5.74
-6.66
-7.36
-8.20
-9.44
-11.26
-13.63
-16.37
-19.12
-21.43
-22.90
-23.31
-22.70
-21.30
-19.42
-17.33
-15.16
-12.93
-10.61
-8.14
-5.54
-2.82
-0.07
2.51
4.70
6.26
7.11
7.36
7.33
7.40
7.76
8.37
8.89
9.00
8.54
7.69
6.82
6.27
6.20
6.44
6.73
6.85
6.79
6.66
6.60
6.63
6.57
6.17
5.26
3.78
1.83
-0.37
-2.59
-4.61
-6.21
-7.31
-7.93
-8.28
-8.71
-9.56
-11.04
-13.11
-15.49
-17.75
-19.46
-20.35
-20.30
-19.36
-17.67
-15.39
-12.66
-9.63
-6.44
-3.25
-0.18
2.60
5.01
6.93
8.23
8.78
8.48
7.30
5.40
3.14
1.01
-0.51
-1.05
-0.58
0.60
1.98
2.94
3.05
2.13
0.29
-2.10
-4.60
-6.74
-8.14
-8.55
-7.91
-6.42
-4.53
-2.91
-2.18
-2.74
-4.61
-7.40
-10.54
-13.46
-15.76
-17.33
-18.21
-18.59
-18.75
-19.00
-19.61
-20.70
-22.16
-23.61
-24.50
-24.33
-22.83
-20.06
-16.35
-12.12
-7.78
-3.60
0.25
3.66
6.51
8.72
10.28
11.29
11.89
12.26
12.51
12.64
12.56
12.15
11.36
10.26
9.03
7.93
7.14
6.75
6.69
6.82
7.00
7.19
7.43
7.73
8.04
8.12
7.72
6.65
4.98
3.02
1.22
-0.11
-0.89
-1.31
-1.75
-2.51
-3.77
-5.49
-7.55
-9.79
-12.04
-14.16
-15.95
-17.19
-17.67
-17.25
-15.87
-13.56
-10.37
-6.37
-1.66
3.55
8.92
13.95
18.12
21.01
22.44
22.53
21.70
20.43
19.17
18.15
17.40
16.78
16.03
14.96
13.44
11.56
9.56
7.82
6.66
6.30
6.67
7.46
8.22
8.53
8.16
7.11
5.57
3.77
1.86
-0.14
-2.27
-4.57
-6.99
-9.40
-11.60
-13.53
-15.25
-16.98
-18.93
-21.18
-23.59
-25.79
-27.40
-28.14
-27.98
-27.10
-25.71
-23.90
-21.57
-18.44
-14.26
-9.01
-2.97
3.30
9.11
13.90
17.34
19.42
20.39
20.60
20.35
19.85
19.13
18.15
16.88
15.34
13.69
12.15
10.96
10.31
10.24
10.58
11.05
11.26
10.96
10.05
8.70
7.20
5.79
4.57
3.47
2.32
1.01
-0.44
-1.93
-3.39
-4.84
-6.46
-8.41
-10.73
-13.32
-15.95
-18.45
-20.82
-23.15
-25.46
-27.55
-28.90
-28.92
-27.15
-23.51
-18.33
-12.23
-5.82
0.47
6.42
12.00
17.17
21.78
25.61
28.40
30.04
30.58
30.23
29.30
28.08
26.73
25.28
23.67
21.85
19.88
17.95
16.31
15.13
14.43
14.06
13.71
13.13
12.15
10.75
9.04
7.17
5.28
3.47
1.72
-0.03
-1.86
-3.83
-5.86
-7.86
-9.72
-11.42
-13.05
-14.83
-16.94
-19.45
-22.34
-25.40
-28.31
-30.60
-31.69
-31.05
-28.33
-23.50
-16.98
-9.48
-1.81
5.33
11.53
16.59
20.46
23.14
24.59
24.84
24.00
22.32
20.12
17.73
15.45
13.42
11.69
10.16
8.70
7.24
5.85
4.63
3.75
3.24
3.02
2.88
2.61
2.03
1.07
-0.28
-1.95
-3.83
-5.81
-7.77
-9.64
-11.41
-13.10
-14.76
-16.38
-17.86
-19.11
-20.16
-21.19
-22.47
-24.25
-26.55
-29.08
-31.26
-32.44
-32.06
-29.91
-26.10
-21.03
-15.20
-9.06
-2.94
2.94
8.37
13.13
16.99
19.79
21.50
22.20
22.08
21.32
20.09
18.53
16.85
15.26
13.97
13.05
12.43
11.95
11.43
10.77
9.96
8.97
7.75
6.20
4.27
2.05
-0.31
-2.59
-4.75
-6.92
-9.36
-12.35
-15.96
-20.13
-24.68
-29.47
-34.48
-39.77
-45.39
-51.29
-57.31
-63.18
-68.61
-73.31
-76.90
-78.92
-78.85
-76.21
-70.76
-62.64
-52.37
-40.89
-29.36
-18.93
-10.50
-4.46
-0.66
1.51
2.83
3.92
5.11
6.34
7.39
8.08
8.46
8.79
9.45
